biceps_emg, triceps_emg, subject_position, position_estimate, brace_position
-2.30902605835581E-05,1.05071885627694E-05,0.52734375,0,0
-2.3654096366954E-05,9.97737879515626E-06,0.52734375,0,0
-2.37512485909974E-05,9.6830490292632E-06,0.52734375,0,0
-2.46431754931109E-05,1.04968348750845E-05,0.52734375,0,0
-2.28081007662695E-05,1.0423567800899E-05,0.52734375,0,0
-2.18493041757029E-05,1.18280186143238E-05,0.52734375,0,0
-2.14276515180245E-05,1.30059070215793E-05,0.52734375,0,0
-2.22534290514886E-05,1.40710017149104E-05,0.52734375,0,0
-2.31479025387671E-05,1.51548083522357E-05,0.52734375,0,0
-2.26944157475373E-05,1.63861877808813E-05,0.52734375,0,0
-1.81254636117956E-05,1.29355730678071E-05,0.52734375,0,0
-2.55868362728506E-05,1.73305725184036E-05,0.52734375,0,0
-1.83061438292498E-05,1.15998100227444E-05,0.52734375,0,0
-2.25492985919118E-05,1.33414259835263E-05,0.52734375,0,0
-2.00505564862397E-05,7.33092156224302E-06,0.52734375,0,0
-2.30365185416304E-05,6.37951006865478E-06,0.52734375,0,0
-2.15977324842243E-05,4.37319113189005E-06,0.52734375,0,0
-2.24191753659397E-05,7.22060030966531E-06,0.52734375,0,0
-2.02769624593202E-05,1.04925838968484E-05,0.52734375,0,0
-1.99020887521328E-05,1.23973395602661E-05,0.52734375,0,0
-2.17033903027186E-05,1.21713710541371E-05,0.52734375,0,0
-2.27346390602179E-05,1.16131641334505E-05,0.52734375,0,0
-2.37089116126299E-05,1.25119995573186E-05,0.52734375,0,0
-2.1862908397452E-05,1.27479033835698E-05,0.52734375,0,0
-2.16945863940055E-05,1.49666657307534E-05,0.52734375,0,0
-1.97036406461848E-05,1.52923694258789E-05,0.52734375,0,0
-1.9845218048431E-05,1.51384510900243E-05,0.52734375,0,0
-1.83403772098245E-05,1.31866918309242E-05,0.52734375,0,0
-1.94672684301622E-05,1.36568032758078E-05,0.52734375,0,0
-2.02572173293447E-05,1.27325083667529E-05,0.52734375,0,0
-2.222396506113E-05,1.12773768705665E-05,0.52734375,0,0
-2.19826488319086E-05,8.93793549039401E-06,0.52734375,0,0
-2.32243965001544E-05,8.79100298334379E-06,0.52734375,0,0
-2.42119767790427E-05,8.719704055693E-06,0.52734375,0,0
-2.47655734710861E-05,1.0199636562902E-05,0.52734375,0,0
-2.4903421945055E-05,1.20528738989378E-05,0.52734375,0,0
-2.44608054345008E-05,1.29783793454408E-05,0.52734375,0,0
-1.89310885616578E-05,9.68458971328801E-06,0.52734375,0,0
-2.68925177806523E-05,1.25380165627575E-05,0.52734375,0,0
-2.08861292776419E-05,7.8856337495381E-06,0.52734375,0,0
-2.68078219960444E-05,8.64830963109853E-06,0.52734375,0,0
-2.3976757802302E-05,5.09386245539645E-06,0.52734375,0,0
-2.7384769055061E-05,8.56372753332835E-06,0.52734375,0,0
-2.52862337219995E-05,1.0728370398283E-05,0.52734375,0,0
-2.55179529631278E-05,1.32836257762392E-05,0.52734375,0,0
-2.44854873017175E-05,1.3564641449193E-05,0.52734375,0,0
-2.41815796471201E-05,1.37007682496915E-05,0.52734375,0,0
-2.37565418501617E-05,1.42755952765583E-05,0.52734375,0,0
-2.29200140893226E-05,1.43711386044743E-05,0.52734375,0,0
-2.33572172874119E-05,1.4750262380403E-05,0.52734375,0,0
-2.14691135624889E-05,1.2440453247109E-05,0.52734375,0,0
-2.09875342989108E-05,1.10747650978738E-05,0.52734375,0,0
-1.91351955436403E-05,1.00657534858328E-05,0.52734375,0,0
-2.00744816538645E-05,1.08403701233328E-05,0.52734375,0,0
-1.92677980521694E-05,1.04310065580648E-05,0.52734375,0,0
-2.09481768251862E-05,1.1289833310002E-05,0.52734375,0,0
-2.10771795536857E-05,1.11176132122637E-05,0.52734375,0,0
-2.24845171032939E-05,1.013588916976E-05,0.52734375,0,0
-2.27847503992962E-05,7.24435585652827E-06,0.52734375,0,0
-2.37500553339487E-05,6.99346219334984E-06,0.52734375,0,0
-2.29090055654524E-05,8.88046361069428E-06,0.52734375,0,0
-2.27902692131465E-05,1.0612437108648E-05,0.52734375,0,0
-2.33841037697857E-05,1.1720672773663E-05,0.52734375,0,0
-2.38501615967834E-05,1.27938319565146E-05,0.52734375,0,0
-1.83864431164693E-05,1.00742836366408E-05,0.52734375,0,0
-2.5987488697865E-05,1.41906921271584E-05,0.52734375,0,0
-2.06105705728987E-05,1.1858965990541E-05,0.52734375,0,0
-2.66792740148958E-05,1.59872924996307E-05,0.52734375,0,0
-2.26120046136202E-05,1.40370493681985E-05,0.52734375,0,0
-2.47310672421008E-05,1.54659446707228E-05,0.52734375,0,0
-2.26652609853772E-05,1.52959655679297E-05,0.52734375,0,0
-2.41267480305396E-05,1.81557134055765E-05,0.52734375,0,0
-2.47799725912046E-05,1.94511012523435E-05,0.52734375,0,0
-2.52955815085443E-05,1.9216482542106E-05,0.52734375,0,0
-2.4767366994638E-05,1.80179013113957E-05,0.52734375,0,0
-2.3328126189881E-05,1.70965759025421E-05,0.52734375,0,0
-2.36039304581936E-05,1.8290855223313E-05,0.52734375,0,0
-2.3226053599501E-05,1.82662715815241E-05,0.52734375,0,0
-2.58138225035509E-05,1.74110718944576E-05,0.52734375,0,0
-2.58856580330757E-05,1.56435944518307E-05,0.52734375,0,0
-2.6407715267851E-05,1.60779873112915E-05,0.52734375,0,0
-2.37936546909623E-05,1.39676685648737E-05,0.52734375,0,0
-2.34445051319199E-05,1.13569985842332E-05,0.52734375,0,0
-2.26847314479528E-05,9.0106223069597E-06,0.52734375,0,0
-2.3560813133372E-05,9.2340287665138E-06,0.52734375,0,0
-2.26038446271559E-05,9.04562057257863E-06,0.52734375,0,0
-2.23590632231208E-05,9.7940064733848E-06,0.52734375,0,0
-2.25219355343143E-05,1.00274373835418E-05,0.52734375,0,0
-2.3778007744113E-05,1.11096278487821E-05,0.52734375,0,0
-2.28561693802476E-05,1.15004149847664E-05,0.52734375,0,0
-2.08258879865753E-05,8.94842924026307E-06,0.52734375,0,0
-1.64936427609064E-05,3.95915276385495E-06,0.52734375,0,0
-2.40528188442113E-05,5.73518536839401E-06,0.52734375,0,0
-1.95795673789689E-05,5.23311746292165E-06,0.52734375,0,0
-2.48040105361724E-05,5.75137346459087E-06,0.52734375,0,0
-2.25434650928946E-05,1.28804572341323E-06,0.52734375,0,0
-2.54184760706266E-05,3.23798765577976E-08,0.52734375,0,0
-2.37561071116943E-05,1.10271196263056E-06,0.52734375,0,0
-2.56950424954994E-05,3.38441782332666E-06,0.52734375,0,0
-2.69680440396769E-05,5.43477881365106E-06,0.52734375,0,0
-2.79940759355668E-05,5.84675899517606E-06,0.52734375,0,0
-2.87688035314204E-05,6.06224239163566E-06,0.52734375,0,0
-2.81408229056979E-05,8.15327439340763E-06,0.52734375,0,0
-2.84264315268956E-05,1.06693605630426E-05,0.52734375,0,0
-2.80082567769568E-05,1.13943924588966E-05,0.52734375,0,0
-2.94970377581194E-05,1.1674482266244E-05,0.52734375,0,0
-2.76051523542264E-05,1.16096643978381E-05,0.52734375,0,0
-2.67850336967967E-05,1.22178871606593E-05,0.52734375,0,0
-2.53349080594489E-05,1.26837403513491E-05,0.52734375,0,0
-2.55840768659255E-05,1.33138428282109E-05,0.52734375,0,0
-2.39269138546661E-05,1.31307724586804E-05,0.52734375,0,0
-2.41470715991454E-05,1.27469675135217E-05,0.52734375,0,0
-2.46334075200139E-05,1.1231593816774E-05,0.52734375,0,0
-2.64088666881435E-05,8.84085875441087E-06,0.52734375,0,0
-2.6989428079105E-05,8.41272049001418E-06,0.52734375,0,0
-2.68372732534772E-05,1.01970499599702E-05,0.52734375,0,0
-2.51273322646739E-05,9.27803466765909E-06,0.52734375,0,0
-2.38341981457779E-05,5.90736090089194E-06,0.52734375,0,0
-1.96081309695728E-05,3.95776487494004E-06,0.52734375,0,0
-2.79943469649879E-05,6.52247990728938E-06,0.52734375,0,0
-2.09267454920337E-05,7.26854432286927E-06,0.52734375,0,0
-2.49771455855807E-05,9.05722390598385E-06,0.52734375,0,0
-2.06367403734475E-05,7.68775953474687E-06,0.52734375,0,0
-2.39899163716473E-05,7.55632754589897E-06,0.52734375,0,0
-2.25715866690734E-05,6.7298169597052E-06,0.52734375,0,0
-2.44492257479578E-05,7.90870035416447E-06,0.52734375,0,0
-2.49973145400872E-05,8.14858231024118E-06,0.52734375,0,0
-2.60093020187924E-05,6.78547712595901E-06,0.52734375,0,0
-2.63342644757358E-05,4.97347264172276E-06,0.52734375,0,0
-2.51453948294511E-05,4.54021392215509E-06,0.52734375,0,0
-2.49494714807952E-05,7.13615054337424E-06,0.52734375,0,0
-2.27327018365031E-05,9.00673148862552E-06,0.52734375,0,0
-2.31377398449695E-05,9.59976205194835E-06,0.52734375,0,0
-2.21363734453917E-05,8.77920683706179E-06,0.52734375,0,0
-2.37164240388665E-05,9.00693248695461E-06,0.52734375,0,0
-2.2813173927716E-05,1.01273235486588E-05,0.52734375,0,0
-2.26494084927253E-05,1.17599684017478E-05,0.52734375,0,0
-2.07574194064364E-05,1.12656753117335E-05,0.52734375,0,0
-2.14331557799596E-05,1.11330718937097E-05,0.52734375,0,0
-2.15493491850793E-05,1.3339587894734E-05,0.52734375,0,0
-2.2963409719523E-05,1.57388967636507E-05,0.52734375,0,0
-2.27068194362801E-05,1.51878857650445E-05,0.52734375,0,0
-2.15836862480501E-05,1.32393261083052E-05,0.52734375,0,0
-2.12310660572257E-05,1.31023725771229E-05,0.52734375,0,0
-2.26811480388278E-05,1.48620365507668E-05,0.52734375,0,0
-1.81184514076449E-05,1.12721354526002E-05,0.52734375,0,0
-2.57282899838174E-05,1.30661001094268E-05,0.52734375,0,0
-2.06360255106119E-05,8.20236164145172E-06,0.52734375,0,0
-2.64051832346013E-05,1.43292736538569E-05,0.52734375,0,0
-2.33095797739225E-05,1.14958420454059E-05,0.52734375,0,0
-2.69595111603849E-05,1.12327206807095E-05,0.52734375,0,0
-2.49589247687254E-05,8.79246726981364E-06,0.52734375,0,0
-2.49753884418169E-05,9.76920546236215E-06,0.52734375,0,0
-2.37945077969925E-05,9.54724782786798E-06,0.52734375,0,0
-2.36185696849134E-05,1.04351238405798E-05,0.52734375,0,0
-2.31581107072998E-05,1.19662372526363E-05,0.52734375,0,0
-2.19287921936484E-05,1.25814885905129E-05,0.52734375,0,0
-2.2001622710377E-05,1.27408111438854E-05,0.52734375,0,0
-2.05617216124665E-05,1.03546990430914E-05,0.52734375,0,0
-2.16842545341933E-05,9.98772520688362E-06,0.52734375,0,0
-2.17999986489303E-05,9.81784887699177E-06,0.52734375,0,0
-2.34923372772755E-05,1.25799224406364E-05,0.52734375,0,0
-2.2323472876451E-05,1.28358642541571E-05,0.52734375,0,0
-2.26125830522506E-05,1.13606220111251E-05,0.52734375,0,0
-2.12076301977504E-05,7.71411032474134E-06,0.52734375,0,0
-2.15154032048304E-05,6.74830607749755E-06,0.52734375,0,0
-2.07070916076191E-05,5.59588761461782E-06,0.52734375,0,0
-2.24280047405045E-05,2.94608275908104E-06,0.52734375,0,0
-2.37972526520025E-05,-8.54773020364519E-07,0.52734375,0,0
-2.41885190916946E-05,-1.40062604714331E-06,0.52734375,0,0
-2.43911872530589E-05,9.4508089887313E-07,0.52734375,0,0
-2.5155193725368E-05,4.00908993469784E-06,0.52734375,0,0
-1.91985182027565E-05,5.07471440869267E-06,0.52734375,0,0
-2.64959689957323E-05,8.43748057377525E-06,0.52734375,0,0
-2.07893936021719E-05,8.92138268682174E-06,0.52734375,0,0
-2.87499115074752E-05,1.1733066457964E-05,0.52734375,0,0
-2.58066029346082E-05,1.22426035886747E-05,0.52734375,0,0
-2.84522866422776E-05,1.25665383166051E-05,0.52734375,0,0
-2.55700597335817E-05,1.01387186077773E-05,0.52734375,0,0
-2.53672696999274E-05,8.76519516168628E-06,0.52734375,0,0
-2.39667042478686E-05,7.99060853751143E-06,0.52734375,0,0
-2.32782113016583E-05,8.13076894701226E-06,0.52734375,0,0
-2.32285638048779E-05,8.74009947438026E-06,0.52734375,0,0
-2.25535895879148E-05,9.36224023462273E-06,0.52734375,0,0
-2.37300246226368E-05,1.10393466457026E-05,0.52734375,0,0
-2.3403325030813E-05,1.23456529763644E-05,0.52734375,0,0
-2.43985468841856E-05,1.37787237690645E-05,0.52734375,0,0
-2.2961768991081E-05,1.39988906084909E-05,0.52734375,0,0
-2.3410942958435E-05,1.38580062412075E-05,0.52734375,0,0
-2.15701566048665E-05,1.34124711621553E-05,0.52734375,0,0
-2.1608364477288E-05,1.4546824786521E-05,0.52734375,0,0
-2.04431471502176E-05,1.51395670400234E-05,0.52734375,0,0
-2.19932080653962E-05,1.37947172333952E-05,0.52734375,0,0
-2.33220398513367E-05,1.08118920252309E-05,0.52734375,0,0
-2.58133968600305E-05,9.89677937468514E-06,0.52734375,0,0
-2.68809799308656E-05,1.15615612230613E-05,0.52734375,0,0
-2.77850031125126E-05,1.35844202304725E-05,0.52734375,0,0
-2.79497417068342E-05,1.4208402717486E-05,0.52734375,0,0
-2.77561630355194E-05,1.38541008709581E-05,0.52734375,0,0
-2.19238645513542E-05,1.10208038677229E-05,0.52734375,0,0
-2.98359136650106E-05,1.47604077938013E-05,0.52734375,0,0
-2.22223752643913E-05,9.21327682590345E-06,0.52734375,0,0
-2.99545990856132E-05,1.07793439383386E-05,0.52734375,0,0
-2.45513911067974E-05,7.97693246568087E-06,0.52734375,0,0
-2.5305600502179E-05,1.10393657450913E-05,0.52734375,0,0
-2.21983409574023E-05,1.21931689136545E-05,0.52734375,0,0
-2.39961464103544E-05,1.47468090290204E-05,0.52734375,0,0
-2.4674705855432E-05,1.57707818289055E-05,0.52734375,0,0
-2.52919599006418E-05,1.57649392349413E-05,0.52734375,0,0
-2.47220832534367E-05,1.50640262290835E-05,0.52734375,0,0
-2.36546184169129E-05,1.43486868182663E-05,0.52734375,0,0
-2.54755559581099E-05,1.53777400555555E-05,0.52734375,0,0
-2.53745511145098E-05,1.48282979353098E-05,0.52734375,0,0
-2.71600893029245E-05,1.52506690938026E-05,0.52734375,0,0
-2.62919784290716E-05,1.49383622556343E-05,0.52734375,0,0
-2.80648509942694E-05,1.6422949556727E-05,0.52734375,0,0
-2.77941871900111E-05,1.6556967239012E-05,0.52734375,0,0
-2.87177372229053E-05,1.59861701831687E-05,0.52734375,0,0
-2.65312264673412E-05,1.22184455904062E-05,0.52734375,0,0
-2.64736117969733E-05,8.84270048118196E-06,0.52734375,0,0
-2.6009611246991E-05,6.66130790705211E-06,0.52734375,0,0
-2.73274981736904E-05,6.58254521113122E-06,0.52734375,0,0
-2.6739116947283E-05,7.7770828283974E-06,0.52734375,0,0
-2.53916077781469E-05,1.04275613921345E-05,0.52734375,0,0
-2.30377718253294E-05,1.09376305772457E-05,0.52734375,0,0
-2.08254823519383E-05,9.52222944761161E-06,0.52734375,0,0
-1.75982877408387E-05,8.59862848301418E-06,0.52734375,0,0
-2.75576257990906E-05,1.3615607713291E-05,0.52734375,0,0
-2.5030340111698E-05,1.00220804597484E-05,0.52734375,0,0
-2.97286733257351E-05,1.08737367554568E-05,0.52734375,0,0
-2.57294723269297E-05,1.08595522760879E-05,0.52734375,0,0
-2.82437486021081E-05,1.26339809867204E-05,0.52734375,0,0
-2.65315284195822E-05,1.27197763504228E-05,0.52734375,0,0
-2.6315761715523E-05,1.36471926452941E-05,0.52734375,0,0
-2.42019414145034E-05,1.2669904208451E-05,0.52734375,0,0
-2.35620464081876E-05,1.1992929103144E-05,0.52734375,0,0
-2.37369386013597E-05,1.28217698147637E-05,0.52734375,0,0
-2.25755411520367E-05,1.23969848573324E-05,0.52734375,0,0
-2.22896178456722E-05,1.07516380012385E-05,0.52734375,0,0
-2.06324384635082E-05,8.92839852895122E-06,0.52734375,0,0
-2.16408570850035E-05,1.01213436209946E-05,0.52734375,0,0
-2.16832122532651E-05,1.18295201900764E-05,0.52734375,0,0
-2.40432873397367E-05,1.29838144857786E-05,0.52734375,0,0
-2.39332766795997E-05,1.24979733300279E-05,0.52734375,0,0
-2.43362283072202E-05,1.31929346025572E-05,0.52734375,0,0
-2.26192860282026E-05,1.3821930224367E-05,0.52734375,0,0
-2.29879697144497E-05,1.45729090945679E-05,0.52734375,0,0
-2.41303314396646E-05,1.48907956827316E-05,0.52734375,0,0
-2.5484710931778E-05,1.48476183312596E-05,0.52734375,0,0
-2.49411277764011E-05,1.33278717839858E-05,0.52734375,0,0
-2.51197598117869E-05,1.29843574541155E-05,0.52734375,0,0
-2.43923132074997E-05,1.27283028632519E-05,0.52734375,0,0
-2.2915688532521E-05,1.2461791811802E-05,0.52734375,0,0
-1.75675450009294E-05,9.7906749942922E-06,0.52734375,0,0
-2.64078462350881E-05,1.17091440188233E-05,0.52734375,0,0
-2.20114525291137E-05,6.73071690471261E-06,0.52734375,0,0
-2.53159087151289E-05,1.13175756268902E-05,0.52734375,0,0
-2.00947142730001E-05,1.05091949080816E-05,0.52734375,0,0
-2.21571426664013E-05,1.10955370473675E-05,0.52734375,0,0
-1.9617660655058E-05,8.71326756168855E-06,0.52734375,0,0
-1.97064746316755E-05,9.35945990931941E-06,0.52734375,0,0
-1.88019857887411E-05,9.05601518752519E-06,0.52734375,0,0
-1.97491881408496E-05,8.00933139544213E-06,0.52734375,0,0
-2.09865520446328E-05,6.52031440040446E-06,0.52734375,0,0
-2.02352275664452E-05,5.91152547713136E-06,0.52734375,0,0
-2.12286486203084E-05,8.17497129901312E-06,0.52734375,0,0
-2.17688811972039E-05,9.63045204116497E-06,0.52734375,0,0
-2.31899848586181E-05,1.10339960883721E-05,0.52734375,0,0
-2.2243437342695E-05,1.1226308743062E-05,0.52734375,0,0
-2.46180097747128E-05,1.28676356325741E-05,0.52734375,0,0
-2.5607752832002E-05,1.37601373353391E-05,0.52734375,0,0
-2.65593807853293E-05,1.56134101416683E-05,0.52734375,0,0
-2.51566070801346E-05,1.51125523188966E-05,0.52734375,0,0
-2.56274579442106E-05,1.38546665766626E-05,0.52734375,0,0
-2.51776418735972E-05,1.20455733849667E-05,0.52734375,0,0
-2.58681557170348E-05,1.35796644826769E-05,0.52734375,0,0
-2.58436339208856E-05,1.66173977049766E-05,0.52734375,0,0
-2.55792965617729E-05,1.84057298611151E-05,0.52734375,0,0
-2.334697637707E-05,1.57798021973576E-05,0.52734375,0,0
-2.11913011298748E-05,1.1576389624679E-05,0.52734375,0,0
-1.70255607372383E-05,5.99656596023124E-06,0.52734375,0,0
-2.57611754932441E-05,6.14287910138955E-06,0.52734375,0,0
-2.19973626371939E-05,1.66535676271451E-06,0.52734375,0,0
-2.61412460531574E-05,1.60322792908119E-06,0.52734375,0,0
-2.15360869333381E-05,-1.02709361726738E-06,0.52734375,0,0
-2.40689387283055E-05,1.56550322572002E-06,0.52734375,0,0
-2.43602698901668E-05,2.42927353610867E-06,0.52734375,0,0
-2.5926339731086E-05,3.2913069389906E-06,0.52734375,0,0
-2.46267336478923E-05,1.48289461776585E-06,0.52734375,0,0
-2.48732212639879E-05,1.04836274772424E-07,0.52734375,0,0
-2.4999346351251E-05,2.30337991524721E-06,0.52734375,0,0
-2.3895487174741E-05,6.37982429907424E-06,0.52734375,0,0
-2.31198882829631E-05,1.06064862848143E-05,0.52734375,0,0
-2.09473491850076E-05,1.27542407426517E-05,0.52734375,0,0
-2.15048694371944E-05,1.43911247505457E-05,0.52734375,0,0
-2.06816439458635E-05,1.45091489685001E-05,0.52734375,0,0
-2.14361261896556E-05,1.60240069817519E-05,0.52734375,0,0
-1.98893012566259E-05,1.79664511961164E-05,0.52734375,0,0
-1.94103613466723E-05,1.96727978618583E-05,0.52734375,0,0
-1.71329756994965E-05,1.74950819200603E-05,0.52734375,0,0
-1.74152246472659E-05,1.30990019897581E-05,0.52734375,0,0
-1.92158440768253E-05,8.99140104593243E-06,0.52734375,0,0
-2.322913678654E-05,9.43975646805484E-06,0.52734375,0,0
-2.45122246269602E-05,1.20484983199276E-05,0.52734375,0,0
-2.24555187742226E-05,1.42598255479243E-05,0.52734375,0,0
-1.86322540685069E-05,1.485027041781E-05,0.52734375,0,0
-1.75418881553924E-05,1.40975316753611E-05,0.52734375,0,0
-1.54036806634394E-05,1.02097501439857E-05,0.52734375,0,0
-2.14516403502785E-05,1.29365289467387E-05,0.52734375,0,0
-1.54833069245797E-05,5.48045773030026E-06,0.52734375,0,0
-1.96938617591513E-05,4.75948490930023E-06,0.52734375,0,0
-1.84335694939364E-05,1.57537033373956E-06,0.52734375,0,0
-2.31507910939399E-05,1.0940816537186E-06,0.52734375,0,0
-2.33737282542279E-05,-3.2946550163615E-06,0.52734375,0,0
-2.52744921453996E-05,-3.17646549774508E-06,0.52734375,0,0
-2.50088833126938E-05,-1.75730667706375E-06,0.52734375,0,0
-2.38854081544559E-05,-1.4812673043707E-06,0.52734375,0,0
-2.35264997172635E-05,-2.90009984382777E-06,0.52734375,0,0
-2.36870473599993E-05,-3.24245661431632E-06,0.52734375,0,0
-2.47444295382593E-05,4.33708009950351E-07,0.52734375,0,0
-2.23893894144567E-05,4.78974197903881E-06,0.52734375,0,0
-2.10783418879146E-05,9.38232187763788E-06,0.52734375,0,0
-1.93317373486934E-05,1.16583305498352E-05,0.52734375,0,0
-2.00962167582475E-05,1.45977064676117E-05,0.52734375,0,0
-1.99827118194662E-05,1.64236644195626E-05,0.52734375,0,0
-2.22427825065097E-05,1.8988830561284E-05,0.52734375,0,0
-2.28157132369233E-05,1.92462139239069E-05,0.52734375,0,0
-2.35300303756958E-05,1.95462871488417E-05,0.52734375,0,0
-2.22729922825238E-05,1.96757628145861E-05,0.52734375,0,0
-2.11739152291557E-05,2.10978105315007E-05,0.52734375,0,0
-2.0589161067619E-05,2.2415917555918E-05,0.52734375,0,0
-2.14172941923607E-05,2.27109303523321E-05,0.52734375,0,0
-2.23723418457666E-05,2.25951152970083E-05,0.52734375,0,0
-2.28521457756869E-05,2.22444450628245E-05,0.52734375,0,0
-1.75625191332074E-05,1.53760101966327E-05,0.52734375,0,0
-2.4702228984097E-05,2.09571735467762E-05,0.52734375,0,0
-1.91476865438744E-05,1.54448898683768E-05,0.52734375,0,0
-2.4869552362361E-05,1.97759836737532E-05,0.52734375,0,0
-2.24285140575375E-05,1.50412524817511E-05,0.52734375,0,0
-2.68668118224014E-05,1.50312644109363E-05,0.52734375,0,0
-2.78601582976989E-05,1.15177590487292E-05,0.52734375,0,0
-3.09914030367509E-05,1.09962929855101E-05,0.52734375,0,0
-3.03907781926682E-05,9.27534438233124E-06,0.52734375,0,0
-2.94283127004746E-05,9.59478165896144E-06,0.52734375,0,0
-2.87615694105625E-05,1.07753494376084E-05,0.52734375,0,0
-2.88935116259381E-05,1.06592169686337E-05,0.52734375,0,0
-3.02808421110967E-05,1.09163738670759E-05,0.52734375,0,0
-2.87770290015033E-05,1.1023337719962E-05,0.52734375,0,0
-2.85490714304615E-05,1.40510974233621E-05,0.52734375,0,0
-2.68493295152439E-05,1.53923720063176E-05,0.52734375,0,0
-2.77495437330799E-05,1.75871500687208E-05,0.52734375,0,0
-2.73914538411191E-05,1.67927901202347E-05,0.52734375,0,0
-2.91475189442281E-05,1.61626703629736E-05,0.52734375,0,0
-2.92410059046233E-05,1.34831652758294E-05,0.52734375,0,0
-2.95733607345028E-05,1.29390127767692E-05,0.52734375,0,0
-2.66030729108024E-05,1.2483078535297E-05,0.52734375,0,0
-2.45777173404349E-05,1.34306910695159E-05,0.52734375,0,0
-2.32857019000221E-05,1.15387583718984E-05,0.52734375,0,0
-2.32735274039442E-05,9.16045974008739E-06,0.52734375,0,0
-2.25845433305949E-05,1.04063392427634E-05,0.52734375,0,0
-2.17842061829288E-05,1.49952829815447E-05,0.52734375,0,0
-1.68987189681502E-05,1.26693848869763E-05,0.52734375,0,0
-2.46375802817056E-05,1.75964869413292E-05,0.52734375,0,0
-2.07764551305445E-05,1.39074236358283E-05,0.52734375,0,0
-2.64916252490366E-05,1.70236362464493E-05,0.52734375,0,0
-2.29852503252914E-05,1.26023360280669E-05,0.52734375,0,0
-2.45545797952218E-05,1.43363049573964E-05,0.52734375,0,0
-2.18863060581498E-05,1.24569905892713E-05,0.52734375,0,0
-2.31979884119937E-05,1.21773773571476E-05,0.52734375,0,0
-2.35713996517006E-05,1.20703834909364E-05,0.52734375,0,0
-2.42086262005614E-05,1.33071926029515E-05,0.52734375,0,0
-2.49983804678777E-05,1.36013586597983E-05,0.52734375,0,0
-2.50070879701525E-05,1.03641432360746E-05,0.52734375,0,0
-2.60899869317655E-05,8.05264062364586E-06,0.52734375,0,0
-2.52296213147929E-05,7.38350445317337E-06,0.52734375,0,0
-2.64132631855318E-05,7.87605222285492E-06,0.52734375,0,0
-2.64156988123432E-05,5.06798141941545E-06,0.52734375,0,0
-2.85469977825414E-05,4.46369949713699E-06,0.52734375,0,0
-2.7874668376171E-05,5.35899789610994E-06,0.52734375,0,0
-2.71849603450391E-05,9.75177226791857E-06,0.52734375,0,0
-2.44615930569125E-05,1.20277682071901E-05,0.52734375,0,0
-2.39024429902202E-05,1.11062445284915E-05,0.52734375,0,0
-2.30269379244419E-05,5.84919143875595E-06,0.52734375,0,0
-2.29422294069082E-05,3.37481378664961E-06,0.52734375,0,0
-2.22074686462292E-05,5.15273859491572E-06,0.52734375,0,0
-2.3221000446938E-05,8.03822058514925E-06,0.52734375,0,0
-2.48662763624452E-05,7.32798980607186E-06,0.52734375,0,0
-2.52378722507274E-05,5.01636895933189E-06,0.52734375,0,0
-1.97425652004313E-05,4.11615201301174E-06,0.52734375,0,0
-2.83224053418962E-05,7.74646196077811E-06,0.52734375,0,0
-2.40450226556277E-05,8.33070771477651E-06,0.52734375,0,0
-3.11653457174543E-05,9.84181406238349E-06,0.52734375,0,0
-2.6452524252818E-05,1.00458519227686E-05,0.52734375,0,0
-2.81392585748108E-05,1.14636504804366E-05,0.52734375,0,0
-2.52017380262259E-05,1.22916690088459E-05,0.52734375,0,0
-2.69451302301604E-05,1.17055669761612E-05,0.52734375,0,0
-2.6519208404352E-05,1.03153406598722E-05,0.52734375,0,0
-2.61605910054641E-05,1.01614405139117E-05,0.52734375,0,0
-2.65918188233627E-05,9.60273064265493E-06,0.52734375,0,0
-2.69945994659793E-05,7.3226024142059E-06,0.52734375,0,0
-2.80273634416517E-05,6.03908438279177E-06,0.52734375,0,0
-2.62326720985584E-05,6.50663332635304E-06,0.52734375,0,0
-2.64340960711706E-05,7.74096042732708E-06,0.52734375,0,0
-2.53904418059392E-05,7.33929800844635E-06,0.52734375,0,0
-2.81214634014759E-05,6.21006256551482E-06,0.52734375,0,0
-2.81629581877496E-05,5.37739879291621E-06,0.52734375,0,0
-2.89460076601245E-05,6.08651725997333E-06,0.52734375,0,0
-2.8055248549208E-05,6.54234963803901E-06,0.52734375,0,0
-2.88325136352796E-05,6.43621069684741E-06,0.52734375,0,0
-2.76921327895252E-05,6.8403660407057E-06,0.52734375,0,0
-2.78935312962858E-05,7.2550128606963E-06,0.52734375,0,0
-2.70217678917106E-05,6.28422640147619E-06,0.52734375,0,0
-2.59088883467484E-05,5.97288999415468E-06,0.52734375,0,0
-2.46926392719615E-05,7.3938549576269E-06,0.52734375,0,0
-2.3869000870036E-05,8.27034546091454E-06,0.52734375,0,0
-1.82676903932588E-05,4.75401293442701E-06,0.52734375,0,0
-2.55125723924721E-05,4.94498726766324E-06,0.52734375,0,0
-1.89612474059686E-05,1.96946825781197E-06,0.52734375,0,0
-2.43584800045937E-05,5.77541459279018E-06,0.52734375,0,0
-2.13738603633828E-05,8.21851517684991E-06,0.52734375,0,0
-2.37399763136636E-05,1.07377927633934E-05,0.52734375,0,0
-2.15370218938915E-05,1.00959041446913E-05,0.52734375,0,0
-2.20419969991781E-05,1.05767403510981E-05,0.52734375,0,0
-2.05552805709885E-05,1.20796876217355E-05,0.52734375,0,0
-2.00440372282173E-05,1.48240351336426E-05,0.52734375,0,0
-2.0546398445731E-05,1.73080370586831E-05,0.52734375,0,0
-2.04774551093578E-05,1.86602119356394E-05,0.52734375,0,0
-2.12493396247737E-05,1.83023839781526E-05,0.52734375,0,0
-2.07403754757252E-05,1.64573157235282E-05,0.52734375,0,0
-2.34545950661413E-05,1.49789620991214E-05,0.52734375,0,0
-2.4447261239402E-05,1.34820247694734E-05,0.52734375,0,0
-2.5928755349014E-05,1.38823697852786E-05,0.52734375,0,0
-2.32803577091545E-05,1.42082553793443E-05,0.52734375,0,0
-2.12372488022083E-05,1.48843209899496E-05,0.52734375,0,0
-1.85001172212651E-05,1.45150133903371E-05,0.52734375,0,0
-1.88948342838557E-05,1.50074420162127E-05,0.52734375,0,0
-1.95245829672785E-05,1.48733424794045E-05,0.52734375,0,0
-2.11537135328399E-05,1.3086199942336E-05,0.52734375,0,0
-2.02103528863518E-05,1.0250578270643E-05,0.52734375,0,0
-1.94671847566497E-05,8.13801671029069E-06,0.52734375,0,0
-1.9961074940511E-05,8.08581717137713E-06,0.52734375,0,0
-1.9948656699853E-05,9.51712263486115E-06,0.52734375,0,0
-1.64984267030377E-05,9.67131381912623E-06,0.52734375,0,0
-2.47051975748036E-05,1.53104756464018E-05,0.52734375,0,0
-2.0792314899154E-05,1.2518003131845E-05,0.52734375,0,0
-2.44671227846993E-05,1.45661824717536E-05,0.52734375,0,0
-1.95425018318929E-05,1.35061545734061E-05,0.52734375,0,0
-2.0027731807204E-05,1.48488834383897E-05,0.52734375,0,0
-1.8045033357339E-05,1.44657715281937E-05,0.52734375,0,0
-2.06490531127201E-05,1.51283702507499E-05,0.52734375,0,0
-2.15715572267072E-05,1.39058392960578E-05,0.52734375,0,0
-2.18444038182497E-05,1.196907760459E-05,0.52734375,0,0
-2.15652798942756E-05,1.046853230946E-05,0.52734375,0,0
-2.06869772227947E-05,9.97100323729683E-06,0.52734375,0,0
-2.09599566005636E-05,1.18481648314628E-05,0.52734375,0,0
-2.04520692932419E-05,1.30533353512874E-05,0.52734375,0,0
-2.3137277821661E-05,1.44465493576718E-05,0.52734375,0,0
-2.45032424572855E-05,1.45669109770097E-05,0.52734375,0,0
-2.68189305643318E-05,1.43510906127631E-05,0.52734375,0,0
-2.59284024650697E-05,1.29390555230202E-05,0.52734375,0,0
-2.49334498221288E-05,1.35980790219037E-05,0.52734375,0,0
-2.2232763512875E-05,1.50600781125831E-05,0.52734375,0,0
-2.26675219892059E-05,1.83378942892887E-05,0.52734375,0,0
-2.27351665671449E-05,2.01733128051274E-05,0.52734375,0,0
-2.30477289733244E-05,2.03663057618542E-05,0.52734375,0,0
-2.2774927856517E-05,1.97343542822637E-05,0.52734375,0,0
-2.26781776291318E-05,1.83606844075257E-05,0.52734375,0,0
-2.2559968783753E-05,1.62950327649014E-05,0.52734375,0,0
-2.3148159016273E-05,1.47620930874837E-05,0.52734375,0,0
-1.90689006558387E-05,1.18455373012694E-05,0.52734375,0,0
-2.60303859249689E-05,1.70971507031936E-05,0.52734375,0,0
-1.87526602530852E-05,1.10644396045245E-05,0.52734375,0,0
-2.31968642765423E-05,1.07539517557598E-05,0.52734375,0,0
-1.84917153092101E-05,7.12663768354105E-06,0.52734375,0,0
-2.14867031900212E-05,7.89049772720318E-06,0.52734375,0,0
-2.0157562175882E-05,4.3379486669437E-06,0.52734375,0,0
-2.28407989197876E-05,5.2770792535739E-07,0.52734375,0,0
-2.28923345275689E-05,-4.27275972469943E-06,0.52734375,0,0
-2.34257640840951E-05,-5.79084417040576E-06,0.52734375,0,0
-2.49262338911649E-05,-4.7602898121113E-06,0.52734375,0,0
-2.51766487053828E-05,-4.5569922804134E-06,0.52734375,0,0
-2.65155158558628E-05,-4.7399530558323E-06,0.52734375,0,0
-2.56140210694866E-05,-5.04142008139752E-06,0.52734375,0,0
-2.65149064944126E-05,-1.77284050550952E-06,0.52734375,0,0
-2.44541988649871E-05,1.45679030083556E-06,0.52734375,0,0
-2.49926451942883E-05,4.69749875264824E-06,0.52734375,0,0
-2.4105695047183E-05,5.13255872647278E-06,0.52734375,0,0
-2.48869328061119E-05,7.05553247826174E-06,0.52734375,0,0
-2.37879357882775E-05,8.83890152181266E-06,0.52734375,0,0
-2.44179900619201E-05,1.10133387352107E-05,0.52734375,0,0
-2.37059666687856E-05,1.21725788631011E-05,0.52734375,0,0
-2.45949504460441E-05,1.41716109283152E-05,0.52734375,0,0
-2.51413748628693E-05,1.54456884047249E-05,0.52734375,0,0
-2.5193439796567E-05,1.59477203851566E-05,0.52734375,0,0
-2.38729171542218E-05,1.62834785442101E-05,0.52734375,0,0
-2.24175364564871E-05,1.65565252245869E-05,0.52734375,0,0
-1.78535428858595E-05,1.26667164295213E-05,0.52734375,0,0
-2.57270421570865E-05,1.6149839211721E-05,0.52734375,0,0
-2.13029925362207E-05,7.76089109422173E-06,0.52734375,0,0
-2.76503633358516E-05,9.82204346655635E-06,0.52734375,0,0
-2.54060814768309E-05,9.52908339968417E-06,0.52734375,0,0
-2.9782857382088E-05,1.25768037833041E-05,0.52734375,0,0
-2.88914598058909E-05,1.10611745185452E-05,0.52734375,0,0
-2.9268847356434E-05,1.25959459182923E-05,0.52734375,0,0
-2.84556808765046E-05,1.42713934110361E-05,0.52734375,0,0
-2.94206656690221E-05,1.41764994623372E-05,0.52734375,0,0
-3.00015144603094E-05,1.15013617687509E-05,0.52734375,0,0
-2.90476218651747E-05,8.60188447404653E-06,0.52734375,0,0
-2.89204035652801E-05,8.61900753079681E-06,0.52734375,0,0
-2.6685522243497E-05,8.58059866004623E-06,0.52734375,0,0
-2.69627398665762E-05,8.57613304106053E-06,0.52734375,0,0
-2.63842375716195E-05,7.09733876647078E-06,0.52734375,0,0
-2.68612056970596E-05,7.94739389675669E-06,0.52734375,0,0
-2.42835048993584E-05,6.98581652613939E-06,0.52734375,0,0
-2.45708088186802E-05,6.94560048941639E-06,0.52734375,0,0
-2.49602417170536E-05,6.82783002048382E-06,0.52734375,0,0
-2.68535568466177E-05,8.51437016535783E-06,0.52734375,0,0
-2.576911720098E-05,1.02658696050639E-05,0.52734375,0,0
-2.40274621319259E-05,1.33123521663947E-05,0.52734375,0,0
-2.1819136236445E-05,1.46493011925486E-05,0.52734375,0,0
-2.2915999579709E-05,1.39128569571767E-05,0.52734375,0,0
-2.44785587710794E-05,1.11071203718893E-05,0.52734375,0,0
-2.43441481870832E-05,9.68066979112336E-06,0.52734375,0,0
-1.91982016986003E-05,8.45850718178554E-06,0.52734375,0,0
-2.88639239443E-05,1.15848242785432E-05,0.52734375,0,0
-2.43501363001997E-05,8.08481490821578E-06,0.52734375,0,0
-2.8842954634456E-05,1.05233120848425E-05,0.52734375,0,0
-2.36534215218853E-05,1.03867814686964E-05,0.52734375,0,0
-2.63654983427841E-05,1.33131788970786E-05,0.52734375,0,0
-2.47415227931924E-05,1.34163019538391E-05,0.52734375,0,0
-2.54084188782144E-05,1.43159395520343E-05,0.52734375,0,0
-2.41962534346385E-05,1.41317332236213E-05,0.52734375,0,0
-2.35652914852835E-05,1.44028699651244E-05,0.52734375,0,0
-2.27485397772398E-05,1.4322246897791E-05,0.52734375,0,0
-2.18008462979924E-05,1.25601700347033E-05,0.52734375,0,0
-2.34463823289843E-05,1.22178462333977E-05,0.52734375,0,0
-2.38399316003779E-05,1.24839571071789E-05,0.52734375,0,0
-2.58407635556068E-05,1.3358639080252E-05,0.52734375,0,0
-2.53825801337371E-05,1.19271908260998E-05,0.52734375,0,0
-2.57393930951366E-05,1.23522195281112E-05,0.52734375,0,0
-2.27565960813081E-05,1.34878291646601E-05,0.52734375,0,0
-2.20374586206162E-05,1.53032578964485E-05,0.52734375,0,0
-2.08152687264374E-05,1.54357876454014E-05,0.52734375,0,0
-2.20515830733348E-05,1.52053271449404E-05,0.52734375,0,0
-2.22878716158448E-05,1.47344881042955E-05,0.52734375,0,0
-2.30206605920102E-05,1.57237445819192E-05,0.52734375,0,0
-2.28981371037662E-05,1.48504050230258E-05,0.52734375,0,0
-2.32634538406273E-05,1.27518387671444E-05,0.52734375,0,0
-2.22212329390459E-05,1.25971673696768E-05,0.52734375,0,0
-2.04282277991297E-05,1.24191874419921E-05,0.52734375,0,0
-1.62157175509492E-05,9.3999278760748E-06,0.52734375,0,0
-2.41978177655255E-05,1.25572632896365E-05,0.52734375,0,0
-1.99153018911602E-05,8.02572412794689E-06,0.52734375,0,0
-2.55826798820635E-05,8.06612752057845E-06,0.52734375,0,0
-2.43843714997638E-05,3.25521068589296E-06,0.52734375,0,0
-2.66247352556093E-05,5.05284924656735E-06,0.52734375,0,0
-2.35763618547935E-05,5.79236484554713E-06,0.52734375,0,0
-2.26174415729474E-05,7.33369870431488E-06,0.52734375,0,0
-2.1885198293603E-05,9.10495509742759E-06,0.52734375,0,0
-2.26939082494937E-05,1.06339457488502E-05,0.52734375,0,0
-2.26456377276918E-05,9.45414467423689E-06,0.52734375,0,0
-2.1530799131142E-05,7.57236966819619E-06,0.52734375,0,0
-2.23893948714249E-05,8.66554819367593E-06,0.52734375,0,0
-2.23059741983889E-05,9.38168523134664E-06,0.52734375,0,0
-2.31442754738964E-05,1.02422327472595E-05,0.52734375,0,0
-2.16839307540795E-05,9.44441853789613E-06,0.52734375,0,0
-2.1784851924167E-05,1.10145265352912E-05,0.52734375,0,0
-1.99660007638158E-05,1.28583351397538E-05,0.52734375,0,0
-1.95960637938697E-05,1.46341471918277E-05,0.52734375,0,0
-1.93352898349985E-05,1.3829780073138E-05,0.52734375,0,0
-2.15722793655004E-05,1.3362948266149E-05,0.52734375,0,0
-2.28451499424409E-05,1.19488659038325E-05,0.52734375,0,0
-2.41740144701907E-05,9.88498049991904E-06,0.52734375,0,0
-2.41318157350179E-05,7.67743676988175E-06,0.52734375,0,0
-2.48661981459009E-05,6.13611109656631E-06,0.52734375,0,0
-2.52979680226417E-05,6.05593913860503E-06,0.52734375,0,0
-2.50514731305884E-05,7.20280468158307E-06,0.52734375,0,0
-1.97380668396363E-05,6.42055329080904E-06,0.52734375,0,0
-2.6879020879278E-05,8.67829658091068E-06,0.52734375,0,0
-1.85268090717727E-05,6.50850552119664E-06,0.52734375,0,0
-2.44260754698189E-05,9.43870782066369E-06,0.52734375,0,0
-2.16396001633257E-05,1.027429880196E-05,0.52734375,0,0
-2.52420777542284E-05,1.22628252938739E-05,0.52734375,0,0
-2.41689249378396E-05,1.22503752209013E-05,0.52734375,0,0
-2.62211269728141E-05,1.41869295475772E-05,0.52734375,0,0
-2.63786896539386E-05,1.45790672831936E-05,0.52734375,0,0
-2.66901170107303E-05,1.48254821397131E-05,0.52734375,0,0
-2.70304590230808E-05,1.54045719682472E-05,0.52734375,0,0
-2.60603956121486E-05,1.51261638166034E-05,0.52734375,0,0
-2.61121276707854E-05,1.53576947923284E-05,0.52734375,0,0
-2.42170208366588E-05,1.51543981701252E-05,0.52734375,0,0
-2.48758024099516E-05,1.51759095388115E-05,0.52734375,0,0
-2.39253422478214E-05,1.34968804559321E-05,0.52734375,0,0
-2.51736673817504E-05,1.24753851196147E-05,0.52734375,0,0
-2.42590431298595E-05,1.12289681055699E-05,0.52734375,0,0
-2.54789356404217E-05,1.10871533252066E-05,0.52734375,0,0
-2.50985194725217E-05,1.07586847661878E-05,0.52734375,0,0
-2.52072677540127E-05,1.07518353615887E-05,0.52734375,0,0
-2.34992985497229E-05,9.41970120038604E-06,0.52734375,0,0
-2.27550735871773E-05,8.53681285661878E-06,0.52734375,0,0
-2.19232842937345E-05,7.91819365986157E-06,0.52734375,0,0
-2.31255071412306E-05,7.9752016972634E-06,0.52734375,0,0
-2.45135706791189E-05,9.14418342290446E-06,0.52734375,0,0
-2.52040663326625E-05,1.03304682852468E-05,0.52734375,0,0
-2.0299106836319E-05,8.02979593572672E-06,0.52734375,0,0
-2.93472494377056E-05,1.03686052170815E-05,0.52734375,0,0
-2.33837581617991E-05,7.80421760282479E-06,0.52734375,0,0
-2.91283868136816E-05,1.22800993267447E-05,0.52734375,0,0
-2.52446625381708E-05,1.19396781883552E-05,0.52734375,0,0
-2.82633500319207E-05,1.28042174765142E-05,0.52734375,0,0
-2.62134690274252E-05,1.14704926090781E-05,0.52734375,0,0
-2.82871460512979E-05,1.18838670459809E-05,0.52734375,0,0
-2.81905886367895E-05,1.0584233677946E-05,0.52734375,0,0
-2.76025457424112E-05,1.03953061625361E-05,0.52734375,0,0
-2.71124390565092E-05,1.09543088910868E-05,0.52734375,0,0
-2.55296017712681E-05,1.05859962786781E-05,0.52734375,0,0
-2.54665119427955E-05,1.06862989923684E-05,0.52734375,0,0
-2.28841417992953E-05,1.06239813248976E-05,0.52734375,0,0
-2.233905979665E-05,1.16191786219133E-05,0.52734375,0,0
-2.01179991563549E-05,1.19343712867703E-05,0.52734375,0,0
-1.99888163479045E-05,1.43365314215771E-05,0.52734375,0,0
-1.80113875103416E-05,1.60357158165425E-05,0.52734375,0,0
-1.88087997230468E-05,1.72120126080699E-05,0.52734375,0,0
-1.85110548045486E-05,1.56551359395962E-05,0.52734375,0,0
-1.94531548913801E-05,1.41292503030854E-05,0.52734375,0,0
-1.92993975360878E-05,1.26012400869513E-05,0.52734375,0,0
-2.06595086638117E-05,1.1914155948034E-05,0.52734375,0,0
-2.06068998522824E-05,1.13929536382784E-05,0.52734375,0,0
-2.13774292205926E-05,1.2251626685611E-05,0.52734375,0,0
-2.2260484911385E-05,1.26242321130121E-05,0.52734375,0,0
-2.26277152250987E-05,1.31349406728987E-05,0.52734375,0,0
-1.92159459402319E-05,1.22573856060626E-05,0.52734375,0,0
-2.71336921287002E-05,1.80681454367004E-05,0.52734375,0,0
-1.94872609426966E-05,1.42353728733724E-05,0.52734375,0,0
-2.31664398597786E-05,1.56842506839894E-05,0.52734375,0,0
-1.90634891623631E-05,1.00969309642096E-05,0.52734375,0,0
-2.11162769119255E-05,1.02116946436581E-05,0.52734375,0,0
-1.85988465091214E-05,9.32829698285786E-06,0.52734375,0,0
-2.01584443857428E-05,1.01395280580618E-05,0.52734375,0,0
-2.01344319066266E-05,9.15686905500479E-06,0.52734375,0,0
-2.10540219995892E-05,7.70238784753019E-06,0.52734375,0,0
-2.29608231165912E-05,6.49929870633059E-06,0.52734375,0,0
-2.38114225794561E-05,5.54018834009185E-06,0.52734375,0,0
-2.45113515120465E-05,6.92760113452096E-06,0.52734375,0,0
-2.2479045583168E-05,7.8021712397458E-06,0.52734375,0,0
-2.33513692364795E-05,9.20800357562257E-06,0.52734375,0,0
-2.29027955356287E-05,8.09962511993945E-06,0.52734375,0,0
-2.41803609242197E-05,8.9033010226558E-06,0.52734375,0,0
-2.28854769375175E-05,1.16249821076053E-05,0.52734375,0,0
-2.29702618526062E-05,1.63415643328335E-05,0.52734375,0,0
-2.13688363146503E-05,1.77775218617171E-05,0.52734375,0,0
-2.13135535886977E-05,1.76707526406972E-05,0.52734375,0,0
-2.04763800866203E-05,1.34818565129535E-05,0.52734375,0,0
-2.16388143599033E-05,7.66404900787165E-06,0.52734375,0,0
-2.22546896111453E-05,2.85496162177878E-06,0.52734375,0,0
-2.2619269657298E-05,1.50776725149626E-06,0.52734375,0,0
-2.2150397853693E-05,4.28014436693047E-06,0.52734375,0,0
-2.25608091568574E-05,1.03649590528221E-05,0.52734375,0,0
-1.83939664566424E-05,1.15755310616805E-05,0.52734375,0,0
-2.70324635494035E-05,1.38133700602339E-05,0.52734375,0,0
-2.16377611650387E-05,3.41154964189627E-06,0.52734375,0,0
-2.61458480963483E-05,-1.81090243245308E-07,0.52734375,0,0
-2.24359482672298E-05,-6.74600914862822E-06,0.52734375,0,0
-2.43354588747025E-05,-5.27653719473165E-06,0.52734375,0,0
-2.15712607314345E-05,-2.63742299466685E-06,0.52734375,0,0
-2.35068637266522E-05,1.20429763228458E-06,0.52734375,0,0
-2.43581107497448E-05,4.97276005262393E-07,0.52734375,0,0
-2.51438723353203E-05,3.78693613356518E-07,0.52734375,0,0
-2.53963789873524E-05,4.14390251535224E-06,0.52734375,0,0
-2.41745110542979E-05,9.35123352974188E-06,0.52734375,0,0
-2.42661826632684E-05,1.35867194330785E-05,0.52734375,0,0
-2.31992762564914E-05,1.42966737257666E-05,0.52734375,0,0
-2.41585148614831E-05,1.46666297951015E-05,0.52734375,0,0
-2.2930171326152E-05,1.34341589728137E-05,0.52734375,0,0
-2.34974868362769E-05,1.39787734951824E-05,0.52734375,0,0
-2.25283274630783E-05,1.36561466206331E-05,0.52734375,0,0
-2.32344846153865E-05,1.4047596778255E-05,0.52734375,0,0
-2.20865531446179E-05,1.36448106786702E-05,0.52734375,0,0
-2.28652588702971E-05,1.52672364492901E-05,0.52734375,0,0
-2.20703150262125E-05,1.56903770403005E-05,0.52734375,0,0
-2.14581377804279E-05,1.57228460011538E-05,0.52734375,0,0
-2.14101892197505E-05,1.49483457789756E-05,0.52734375,0,0
-2.39457767747808E-05,1.44330151670147E-05,0.52734375,0,0
-2.55532177106943E-05,1.29627514979802E-05,0.52734375,0,0
-2.45553674176335E-05,1.13767728180392E-05,0.52734375,0,0
-1.89331622095779E-05,9.27672317629913E-06,0.52734375,0,0
-2.80741678579943E-05,1.3797096471535E-05,0.52734375,0,0
-2.2099395209807E-05,1.11298022602568E-05,0.52734375,0,0
-2.6428553610458E-05,1.31589622469619E-05,0.52734375,0,0
-2.29306115215877E-05,1.27178964248742E-05,0.52734375,0,0
-2.59358148468891E-05,1.63967579283053E-05,0.52734375,0,0
-2.45488809014205E-05,1.59361261466984E-05,0.52734375,0,0
-2.62446064880351E-05,1.53281944221817E-05,0.52734375,0,0
-2.70588461717125E-05,1.33451349029201E-05,0.52734375,0,0
-2.87543934973655E-05,1.22982128232252E-05,0.52734375,0,0
-2.93584707833361E-05,1.24120215332368E-05,0.52734375,0,0
-2.73547884717118E-05,1.13986197902705E-05,0.52734375,0,0
-2.65747894445667E-05,1.09789743873989E-05,0.52734375,0,0
-2.49773274845211E-05,1.18203197416733E-05,0.52734375,0,0
-2.56339517363813E-05,1.49638817674713E-05,0.52734375,0,0
-2.43094600591576E-05,1.53461187437642E-05,0.52734375,0,0
-2.52455611189362E-05,1.54177159856772E-05,0.52734375,0,0
-2.46151339524658E-05,1.5026931578177E-05,0.52734375,0,0
-2.50657831202261E-05,1.60745912580751E-05,0.52734375,0,0
-2.27643613470718E-05,1.53463643073337E-05,0.52734375,0,0
-2.22315920836991E-05,1.42010112540447E-05,0.52734375,0,0
-2.23314218601445E-05,1.36855187520268E-05,0.52734375,0,0
-2.43724152824143E-05,1.38712912303163E-05,0.52734375,0,0
-2.59219832514646E-05,1.32299437609618E-05,0.52734375,0,0
-2.6439105567988E-05,1.36479266075185E-05,0.52734375,0,0
-2.52957452175906E-05,1.42069984576665E-05,0.52734375,0,0
-2.40038498304784E-05,1.44402720252401E-05,0.52734375,0,0
-1.94824551726924E-05,1.1438565707067E-05,0.52734375,0,0
-2.75262809736887E-05,1.59906376211438E-05,0.52734375,0,0
-2.09159370569978E-05,1.21349930850556E-05,0.52734375,0,0
-2.64506124949548E-05,1.54307872435311E-05,0.52734375,0,0
-2.35335301113082E-05,1.15752882265951E-05,0.52734375,0,0
-2.66580664174398E-05,1.00797233244521E-05,0.52734375,0,0
-2.30163404921768E-05,6.51020809527836E-06,0.52734375,0,0
-2.28959179366939E-05,6.29845590083278E-06,0.52734375,0,0
-2.30971163546201E-05,4.71940074930899E-06,0.52734375,0,0
-2.37913209275575E-05,2.90009120362811E-06,0.52734375,0,0
-2.3110120309866E-05,2.40597682932275E-06,0.52734375,0,0
-2.07781795324991E-05,2.87113630292879E-06,0.52734375,0,0
-2.09210029424867E-05,4.74626267532585E-06,0.52734375,0,0
-2.08409455808578E-05,5.74926980334567E-06,0.52734375,0,0
-2.36309570027515E-05,9.08825131773483E-06,0.52734375,0,0
-2.35858242376707E-05,1.12180232463288E-05,0.52734375,0,0
-2.4454644517391E-05,1.20259828690905E-05,0.52734375,0,0
-2.39278924709652E-05,9.94920355879003E-06,0.52734375,0,0
-2.59856951743132E-05,9.24470987229142E-06,0.52734375,0,0
-2.5527820980642E-05,7.88951456343057E-06,0.52734375,0,0
-2.66618153546005E-05,7.82912593422225E-06,0.52734375,0,0
-2.72941742878174E-05,7.84226722316816E-06,0.52734375,0,0
-2.79558371403255E-05,8.91370928002289E-06,0.52734375,0,0
-2.71947392320726E-05,9.63232196227182E-06,0.52734375,0,0
-2.76189166470431E-05,1.1155202628288E-05,0.52734375,0,0
-2.75053916993784E-05,1.18065427159308E-05,0.52734375,0,0
-2.76469763775822E-05,1.16806941150571E-05,0.52734375,0,0
-2.2197600628715E-05,1.11766585177975E-05,0.52734375,0,0
-3.14065000566188E-05,1.65110395755619E-05,0.52734375,0,0
-2.34745311900042E-05,1.23054214782314E-05,0.52734375,0,0
-2.89617582893698E-05,1.28318024508189E-05,0.52734375,0,0
-2.44396360358223E-05,7.45721308703651E-06,0.52734375,0,0
-2.70405307674082E-05,7.55689143261407E-06,0.52734375,0,0
-2.40523459069664E-05,9.03003092389554E-06,0.52734375,0,0
-2.56720086326823E-05,1.22569681479945E-05,0.52734375,0,0
-2.49841577897314E-05,1.14527365440154E-05,0.52734375,0,0
-2.45438550336985E-05,9.13264466362307E-06,0.52734375,0,0
-2.52943154919194E-05,8.53572601045016E-06,0.52734375,0,0
-2.59471889876295E-05,8.69143423187779E-06,0.52734375,0,0
-2.73048644885421E-05,9.32523198571289E-06,0.52734375,0,0
-2.53086636803346E-05,8.41410565044498E-06,0.703125,0,0
-2.53695361607242E-05,8.74289708008291E-06,0.703125,0,0
-2.34874096349813E-05,8.88226077222498E-06,0.703125,0,0
-2.36680571106263E-05,1.1116404493805E-05,0.703125,0,0
-2.11876795219723E-05,1.24602074720315E-05,0.703125,0,0
-2.20184010686353E-05,1.4410483345273E-05,0.703125,0,0
-2.15537511394359E-05,1.50798414324527E-05,0.703125,0,0
-2.18903896893607E-05,1.6063457223936E-05,0.703125,0,0
-2.0319115719758E-05,1.5366698789876E-05,0.703125,0,0
-2.07507055165479E-05,1.33739595185034E-05,0.703125,0,0
-2.13997336686589E-05,1.16279879875947E-05,0.703125,0,0
-2.25420408241916E-05,1.24917751236353E-05,0.703125,0,0
-2.29287343245232E-05,1.26392060337821E-05,0.703125,0,0
-2.27037617150927E-05,1.1779619853769E-05,0.703125,0,0
-1.67749767570058E-05,1.00855677374057E-05,0.703125,0,0
-2.35116403928259E-05,1.36503231260576E-05,0.703125,0,0
-1.82917046913644E-05,9.21400260267546E-06,0.703125,0,0
-2.25253952521598E-05,1.25407386804E-05,0.703125,0,0
-1.81393115781248E-05,1.21020539154415E-05,0.703125,0,0
-1.99611185962567E-05,1.32185141410446E-05,0.703125,0,0
-1.75601853698026E-05,1.04801902125473E-05,0.703125,0,0
-1.82171279448085E-05,8.9696823124541E-06,0.703125,0,0
-1.68769856827566E-05,8.20581681182375E-06,0.703125,0,0
-1.59813807840692E-05,1.0164428204007E-05,0.703125,0,0
-1.62420219567139E-05,1.19022924991441E-05,0.703125,0,0
-1.67157777468674E-05,1.20721851999406E-05,0.703125,0,0
-1.84070577233797E-05,1.26372069644276E-05,0.703125,0,0
-1.87882760656066E-05,1.27488638099749E-05,0.703125,0,0
-2.1162066332181E-05,1.33388002723223E-05,0.703125,0,0
-2.0586068785633E-05,1.14658259917633E-05,0.703125,0,0
-2.15313011722174E-05,1.0981670129695E-05,0.703125,0,0
-2.16555054066703E-05,1.05613853520481E-05,0.703125,0,0
-2.35680636251345E-05,1.14660688268486E-05,0.703125,0,0
-2.35987990890862E-05,1.04548153103678E-05,0.703125,0,0
-2.53637954301666E-05,9.65657000051579E-06,0.703125,0,0
-2.53223024628824E-05,8.83507073012879E-06,0.703125,0,0
-2.54165461228695E-05,9.28692315937951E-06,0.703125,0,0
-2.59093030763324E-05,9.23853258427698E-06,0.703125,0,0
-2.77165236184374E-05,9.4428642114508E-06,0.703125,0,0
-2.79449595836923E-05,8.66361733642407E-06,0.703125,0,0
-2.68667736236239E-05,7.11747770765214E-06,0.703125,0,0
-2.13835137401475E-05,4.77639059681678E-06,0.703125,0,0
-2.99779003398726E-05,8.07887317932909E-06,0.703125,0,0
-2.19606608879985E-05,9.35584193939576E-06,0.703125,0,0
-2.74194389930926E-05,1.26493150673923E-05,0.703125,0,0
-2.39157197938766E-05,1.1367276783858E-05,0.703125,0,0
-2.74925423582317E-05,9.22380968404468E-06,0.703125,0,0
-2.50889406743227E-05,6.01456622462138E-06,0.703125,0,0
-2.68278490693774E-05,5.82901975576533E-06,0.703125,0,0
-2.6960215109284E-05,7.02557190379594E-06,0.703125,0,0
-2.75451184279518E-05,9.22175877349218E-06,0.703125,0,0
-2.75536312983604E-05,1.08431668195408E-05,0.703125,0,0
-2.59903845289955E-05,1.09164138848428E-05,0.703125,0,0
-2.72469005722087E-05,1.03887441582629E-05,0.703125,0,0
-2.68499952653656E-05,8.83844313648297E-06,0.703125,0,0
-2.72708912234521E-05,7.5094085332239E-06,0.703125,0,0
-2.40151857724413E-05,6.2515537138097E-06,0.703125,0,0
-2.37122039834503E-05,6.33966783425421E-06,0.703125,0,0
-2.30538407777203E-05,6.95623748470098E-06,0.703125,0,0
-2.56951989285881E-05,8.77340607985388E-06,0.703125,0,0
-2.58534364547813E-05,1.00605120678665E-05,0.703125,0,0
-2.69434549409198E-05,1.17713252620888E-05,0.703125,0,0
-2.68411131401081E-05,1.25951701193117E-05,0.703125,0,0
-2.7876516469405E-05,1.22389319585636E-05,0.703125,0,0
-2.76812788797542E-05,1.14504064185894E-05,0.703125,0,0
-2.74762132903561E-05,1.15244447442819E-05,0.703125,0,0
-2.72020442935172E-05,1.14185604616068E-05,0.703125,0,0
-2.78809784504119E-05,1.05088747659465E-05,0.703125,0,0
-2.27409418585012E-05,8.57188570080325E-06,0.703125,0,0
-3.16554032906424E-05,1.24588314065477E-05,0.703125,0,0
-2.40598346863408E-05,1.01763771453989E-05,0.703125,0,0
-3.1443327316083E-05,1.18931948236423E-05,0.703125,0,0
-2.69972806563601E-05,8.86962152435444E-06,0.703125,0,0
-2.89853760477854E-05,9.36668948270381E-06,0.703125,0,0
-2.50415669142967E-05,9.42476071941201E-06,0.703125,0,0
-2.5490264306427E-05,1.21792227218975E-05,0.703125,0,0
-2.38876418734435E-05,1.16318960863282E-05,0.703125,0,0
-2.29170764214359E-05,9.61551086220425E-06,0.703125,0,0
-2.19835856114514E-05,9.4067499958328E-06,0.703125,0,0
-2.0521534679574E-05,1.16638993858942E-05,0.703125,0,0
-2.25262665480841E-05,1.42649751069257E-05,0.703125,0,0
-2.30420100706397E-05,1.42188619065564E-05,0.703125,0,0
-2.40482168010203E-05,1.39371959448908E-05,0.703125,0,0
-2.11103124456713E-05,1.28325473269797E-05,0.703125,0,0
-2.17968081415165E-05,1.41247073770501E-05,0.703125,0,0
-2.12096947507234E-05,1.42617482197238E-05,0.703125,0,0
-2.3471046006307E-05,1.40057609314681E-05,0.703125,0,0
-2.28294975386234E-05,1.19023361548898E-05,0.703125,0,0
-2.21813188545639E-05,1.10144574136939E-05,0.703125,0,0
-2.05166179512162E-05,1.15989341793465E-05,0.703125,0,0
-2.23953611566685E-05,1.3249250514491E-05,0.703125,0,0
-2.34965373238083E-05,1.28235242300434E-05,0.703125,0,0
-2.36638297792524E-05,1.21145421871915E-05,0.703125,0,0
-2.26756801566808E-05,1.28481378851575E-05,0.703125,0,0
-2.30414116231259E-05,1.50500954987365E-05,0.703125,0,0
-2.03008239623159E-05,1.36128319354611E-05,0.703125,0,0
-2.88177780021215E-05,2.14580923056928E-05,0.703125,0,0
-2.14863066503312E-05,1.80528477358166E-05,0.703125,0,0
-2.60966917267069E-05,1.9799665096798E-05,0.703125,0,0
-2.20408928726101E-05,1.58327347890008E-05,0.703125,0,0
-2.48614960582927E-05,1.66758873092476E-05,0.703125,0,0
-2.28661210712744E-05,1.48377675941447E-05,0.703125,0,0
-2.47431416937616E-05,1.57802260218887E-05,0.703125,0,0
-2.39641740336083E-05,1.40683087010984E-05,0.703125,0,0
-2.33603113883873E-05,1.24695325212087E-05,0.703125,0,0
-2.3936712750583E-05,1.28988385768025E-05,0.703125,0,0
-2.42105270444881E-05,1.18624202514184E-05,0.703125,0,0
-2.56342427746858E-05,9.76333740254631E-06,0.703125,0,0
-2.46728050115053E-05,6.10507231613155E-06,0.703125,0,0
-2.56380189966876E-05,5.81908170715906E-06,0.703125,0,0
-2.44264574575936E-05,7.44466478863615E-06,0.703125,0,0
-2.49076019827044E-05,1.14053218567278E-05,0.703125,0,0
-2.30362074944424E-05,1.2223700650793E-05,0.703125,0,0
-2.39951641560765E-05,1.21944958664244E-05,0.703125,0,0
-2.4279712306452E-05,1.12609395728214E-05,0.703125,0,0
-2.60420765698655E-05,1.27467483252985E-05,0.703125,0,0
-2.55392078543082E-05,1.38031946335104E-05,0.703125,0,0
-2.57093724940205E-05,1.40053143695695E-05,0.703125,0,0
-2.40184672293253E-05,1.27609546325402E-05,0.703125,0,0
-2.1951665985398E-05,1.20364547910867E-05,0.703125,0,0
-2.12420291063609E-05,1.14555286927498E-05,0.703125,0,0
-2.28188910114113E-05,1.04616710814298E-05,0.703125,0,0
-1.9623488697107E-05,8.05817853688495E-06,0.703125,0,0
-2.7452340873424E-05,1.15228167487658E-05,0.703125,0,0
-1.94201838894514E-05,8.03288276074454E-06,0.703125,0,0
-2.33517966989893E-05,7.32752096155309E-06,0.703125,0,0
-1.9085688109044E-05,2.83116628452262E-06,0.703125,0,0
-2.10080615943298E-05,2.99741941489629E-06,0.703125,0,0
-1.83112224476645E-05,3.54364010490826E-06,0.703125,0,0
-1.97159479284892E-05,6.42408076600987E-06,0.703125,0,0
-1.92438419617247E-05,8.01707301434362E-06,0.703125,0,0
-1.93885334738297E-05,9.43659870245028E-06,0.703125,0,0
-1.98270590772154E-05,1.1953265129705E-05,0.703125,0,0
-1.98020916286623E-05,1.3377376490098E-05,0.703125,0,0
-2.20834226638544E-05,1.30255129988655E-05,0.703125,0,0
-2.15054660657188E-05,1.10563451016787E-05,0.703125,0,0
-2.18165514525026E-05,1.13216110548819E-05,0.703125,0,0
-2.02409792109393E-05,1.25153692351887E-05,0.703125,0,0
-2.15836607821984E-05,1.45289604915888E-05,0.703125,0,0
-2.06412532861577E-05,1.43398601721856E-05,0.703125,0,0
-2.09293139050715E-05,1.42537091960548E-05,0.703125,0,0
-1.96216551557882E-05,1.34175024868455E-05,0.703125,0,0
-2.02685405383818E-05,1.3372292414715E-05,0.703125,0,0
-1.99219484784408E-05,1.29876061691903E-05,0.703125,0,0
-2.1346739231376E-05,1.22306364573888E-05,0.703125,0,0
-2.29430643230444E-05,1.0555822882452E-05,0.703125,0,0
-2.48409214691492E-05,7.76834076532396E-06,0.703125,0,0
-2.54613660217728E-05,4.04049796998152E-06,0.703125,0,0
-2.49165914283367E-05,2.35359425460047E-06,0.703125,0,0
-1.86580491572386E-05,2.74641638497997E-06,0.703125,0,0
-2.49285876634531E-05,4.50355400971603E-06,0.703125,0,0
-1.79196631506784E-05,5.70019392398535E-06,0.703125,0,0
-2.5658002414275E-05,7.64450760470936E-06,0.703125,0,0
-2.36865453189239E-05,6.76060835758108E-06,0.703125,0,0
-2.58490435953718E-05,8.36033541418146E-06,0.703125,0,0
-2.26639731408795E-05,1.05813405752997E-05,0.703125,0,0
-2.25601361307781E-05,1.22098235806334E-05,0.703125,0,0
-2.06882559723454E-05,1.22363544505788E-05,0.703125,0,0
-2.04838452191325E-05,1.14667500383803E-05,0.703125,0,0
-2.18662862607744E-05,1.08833046397194E-05,0.703125,0,0
-2.2617628928856E-05,9.41894904826768E-06,0.703125,0,0
-2.43514423345914E-05,9.08853508008178E-06,0.703125,0,0
-2.38784796238178E-05,9.91650540527189E-06,0.703125,0,0
-2.55876784649445E-05,1.01129617178231E-05,0.703125,0,0
-2.4956056222436E-05,8.35056380310562E-06,0.703125,0,0
-2.56038165389327E-05,6.66769528834266E-06,0.703125,0,0
-2.48171363637084E-05,5.87071554036811E-06,0.703125,0,0
-2.70093150902539E-05,6.0344850680849E-06,0.703125,0,0
-2.71807984972838E-05,6.0984266383457E-06,0.703125,0,0
-2.79705818684306E-05,7.27027600078145E-06,0.703125,0,0
-2.73240748356329E-05,9.33286901272368E-06,0.703125,0,0
-2.78017851087498E-05,1.13010146378656E-05,0.703125,0,0
-2.72355810011504E-05,1.161587988463E-05,0.703125,0,0
-2.68241201411001E-05,1.12033794721356E-05,0.703125,0,0
-2.55847717198776E-05,1.24369635159383E-05,0.703125,0,0
-2.40749996009981E-05,1.36004473461071E-05,0.703125,0,0
-1.97515510080848E-05,1.10100863821572E-05,0.703125,0,0
-2.93643624900142E-05,1.66136724146781E-05,0.703125,0,0
-2.35579736909131E-05,1.41500086101587E-05,0.703125,0,0
-2.79989617411047E-05,1.6771313312347E-05,0.703125,0,0
-2.46008439717116E-05,1.32832246890757E-05,0.703125,0,0
-2.75603251793655E-05,1.48959461512277E-05,0.703125,0,0
-2.43617323576473E-05,1.5557678125333E-05,0.703125,0,0
-2.56741241173586E-05,1.84667333087418E-05,0.703125,0,0
-2.69664706138428E-05,1.71864758158335E-05,0.703125,0,0
-2.80992862826679E-05,1.35440559461131E-05,0.703125,0,0
-2.72889810730703E-05,1.22934779938078E-05,0.703125,0,0
-2.48113519774051E-05,1.23250001706765E-05,0.703125,0,0
-2.44113580265548E-05,1.12262359834858E-05,0.703125,0,0
-2.30643054237589E-05,7.45247689337702E-06,0.703125,0,0
-2.4522036255803E-05,5.13839040650055E-06,0.703125,0,0
-2.43843714997638E-05,2.57888132182416E-06,0.703125,0,0
-2.62728899542708E-05,3.35207937496307E-06,0.703125,0,0
-2.58529362326954E-05,5.58795227334485E-06,0.703125,0,0
-2.74296071438584E-05,9.22237813938409E-06,0.703125,0,0
-2.64145728579024E-05,1.0844071766769E-05,0.703125,0,0
-2.55034210567828E-05,1.33139592435327E-05,0.703125,0,0
-2.36871146626072E-05,1.48828303281334E-05,0.703125,0,0
-2.36725463764742E-05,1.46372876770329E-05,0.703125,0,0
-2.29453235078836E-05,1.30548924062168E-05,0.703125,0,0
-2.25313888222445E-05,1.38988598337164E-05,0.703125,0,0
-2.25355506699998E-05,1.39817857416347E-05,0.703125,0,0
-2.31619633268565E-05,1.37164770421805E-05,0.703125,0,0
-1.90771515917731E-05,1.12930320028681E-05,0.703125,0,0
-2.74698813882424E-05,1.44906898640329E-05,0.703125,0,0
-2.12376380659407E-05,9.9446197054931E-06,0.703125,0,0
-2.55276008829242E-05,1.47818918776466E-05,0.703125,0,0
-2.02023729798384E-05,1.28251313071814E-05,0.703125,0,0
-2.11025635508122E-05,1.2526118553069E-05,0.703125,0,0
-1.89887705346337E-05,7.69473172113067E-06,0.703125,0,0
-2.117829353665E-05,4.46301146439509E-06,0.703125,0,0
-2.11104397749295E-05,1.58870727773319E-06,0.703125,0,0
-2.14285864785779E-05,1.89054958354973E-06,0.703125,0,0
-2.24181148951175E-05,3.64335460290022E-06,0.703125,0,0
-2.23966908379225E-05,5.45219518244267E-06,0.703125,0,0
-2.28064618568169E-05,8.6436784840771E-06,0.703125,0,0
-2.09065201488556E-05,1.08461008494487E-05,0.703125,0,0
-2.10098805837333E-05,1.34326501211035E-05,0.703125,0,0
-1.96516484720632E-05,1.22504015962477E-05,0.703125,0,0
-2.17269916902296E-05,1.11480912892148E-05,0.703125,0,0
-2.29777870117687E-05,9.70118890109006E-06,0.703125,0,0
-2.56659532169579E-05,1.02006770248408E-05,0.703125,0,0
-2.47647949436214E-05,9.60376382863615E-06,0.703125,0,0
-2.35469560720958E-05,9.71917324932292E-06,0.703125,0,0
-2.17785182030639E-05,8.36871095089009E-06,0.703125,0,0
-2.24402847379679E-05,8.01174337539123E-06,0.703125,0,0
-2.19597495743074E-05,7.80383925302885E-06,0.703125,0,0
-2.24994091695407E-05,8.02927843324142E-06,0.703125,0,0
-2.43884533119854E-05,8.81117739481851E-06,0.703125,0,0
-2.67931827693246E-05,1.01288023870438E-05,0.703125,0,0
-2.34219787671464E-05,9.54968527366873E-06,0.703125,0,0
-3.30152943206485E-05,1.47096170621808E-05,0.703125,0,0
-2.34754588746E-05,1.33275580083136E-05,0.703125,0,0
-2.86403937934665E-05,1.58224956976483E-05,0.703125,0,0
-2.40008539549308E-05,1.25607066365774E-05,0.703125,0,0
-2.72830457106465E-05,1.16016617539572E-05,0.703125,0,0
-2.61331042565871E-05,9.1920655904687E-06,0.703125,0,0
-2.86005306406878E-05,1.00593697425211E-05,0.703125,0,0
-2.66516217379831E-05,1.10641040009796E-05,0.703125,0,0
-2.36434170801658E-05,1.16907749543316E-05,0.703125,0,0
-2.24964333028765E-05,1.10239652713062E-05,0.703125,0,0
-2.27952587010805E-05,1.09140937638585E-05,0.703125,0,0
-2.60972119576763E-05,1.22523551908671E-05,0.703125,0,0
-2.65657508862205E-05,1.17024210339878E-05,0.703125,0,0
-2.78504649031674E-05,1.12986299427575E-05,0.703125,0,0
-2.61058885371313E-05,1.10492746898672E-05,0.703125,0,0
-2.64186874119332E-05,1.27106422951329E-05,0.703125,0,0
-2.40834051510319E-05,1.29742629724205E-05,0.703125,0,0
-2.40419394685887E-05,1.40663696583943E-05,0.703125,0,0
-2.26414122153074E-05,1.53816035890486E-05,0.703125,0,0
-2.37396689044544E-05,1.72531854332192E-05,0.703125,0,0
-2.33611863222905E-05,1.61742391355801E-05,0.703125,0,0
-2.38233733398374E-05,1.51499916682951E-05,0.703125,0,0
-2.30842870223569E-05,1.40414585985127E-05,0.703125,0,0
-2.33827486226801E-05,1.26386730698869E-05,0.703125,0,0
-2.36624655371998E-05,1.06452316686045E-05,0.703125,0,0
-2.39205965044675E-05,9.60040870268131E-06,0.703125,0,0
-2.11254919122439E-05,1.00967581602163E-05,0.703125,0,0
-3.141717024846E-05,1.56097303261049E-05,0.703125,0,0
-2.40995395870414E-05,1.18384450615849E-05,0.703125,0,0
-2.7300226065563E-05,1.24516991490964E-05,0.703125,0,0
-2.05903543246677E-05,1.00397601272562E-05,0.703125,0,0
-2.04485095309792E-05,1.13616479211487E-05,0.703125,0,0
-1.74154065462062E-05,1.08394842754933E-05,0.703125,0,0
-1.86590277735377E-05,1.11855642899172E-05,0.703125,0,0
-1.88500944204861E-05,1.01140849437797E-05,0.703125,0,0
-2.00513022718951E-05,9.14556767384056E-06,0.703125,0,0
-2.22275339183398E-05,1.00324405138963E-05,0.703125,0,0
-2.32916354434565E-05,1.04520322565804E-05,0.703125,0,0
-2.45662231463939E-05,1.14405611384427E-05,0.703125,0,0
-2.31177091336576E-05,1.17715599117219E-05,0.703125,0,0
-2.34667786571663E-05,1.2481922567531E-05,0.703125,0,0
-2.15788713830989E-05,1.11305125756189E-05,0.703125,0,0
-2.22171238419833E-05,1.08009226096328E-05,0.703125,0,0
-2.1492260202649E-05,1.05235549199278E-05,0.703125,0,0
-2.32699858315755E-05,1.13596870505717E-05,0.703125,0,0
-2.40828721871367E-05,1.11788140202407E-05,0.703125,0,0
-2.5671854018583E-05,1.05072194855893E-05,0.703125,0,0
-2.49334279942559E-05,8.95295033842558E-06,0.703125,0,0
-2.46418203460053E-05,7.95495907368604E-06,0.703125,0,0
-2.35187690122984E-05,7.2208245001093E-06,0.703125,0,0
-2.42544301727321E-05,7.67072742746677E-06,0.703125,0,0
-2.4425422452623E-05,9.19235208129976E-06,0.703125,0,0
-2.39274504565401E-05,1.16247701953398E-05,0.703125,0,0
-1.96129713003756E-05,9.93588764686137E-06,0.703125,0,0
-2.86482991214143E-05,1.28151959870593E-05,0.703125,0,0
-2.25161802518414E-05,8.47420233185403E-06,0.703125,0,0
-2.65464695985429E-05,1.14636177386274E-05,0.703125,0,0
-2.10690668609459E-05,1.05879835246014E-05,0.703125,0,0
-2.26413740165299E-05,1.37082852234016E-05,0.703125,0,0
-2.03407380467979E-05,1.27876164697227E-05,0.703125,0,0
-2.19140838453313E-05,1.35302789203706E-05,0.703125,0,0
-2.17941815208178E-05,1.37323295348324E-05,0.703125,0,0
-2.22001181100495E-05,1.53829714690801E-05,0.703125,0,0
-2.35846619034419E-05,1.73083626577863E-05,0.703125,0,0
-2.50033899646951E-05,1.77671827259474E-05,0.703125,0,0
-2.72416527877795E-05,1.79058170033386E-05,0.703125,0,0
-2.6158688342548E-05,1.67190264619421E-05,0.703125,0,0
-2.53032067121239E-05,1.66660593095003E-05,0.703125,0,0
-2.2842121325084E-05,1.45541498568491E-05,0.703125,0,0
-2.46472445724066E-05,1.21034227049677E-05,0.703125,0,0
-2.57232059084345E-05,8.43875204736833E-06,0.703125,0,0
-2.73312471108511E-05,7.15548731022864E-06,0.703125,0,0
-2.51043184107402E-05,5.54835651200847E-06,0.703125,0,0
-2.47457592195133E-05,5.54580492462264E-06,0.703125,0,0
-2.46379895543214E-05,5.94743642068352E-06,0.703125,0,0
-2.62823105003918E-05,7.97764005255885E-06,0.703125,0,0
-2.61304412561003E-05,1.02925141618471E-05,0.703125,0,0
-2.52295467362273E-05,1.2150176189607E-05,0.703125,0,0
-2.51014571404085E-05,1.11211274997913E-05,0.703125,0,0
-2.63902002188843E-05,8.78399896464543E-06,0.703125,0,0
-2.11026308534201E-05,5.87330714552081E-06,0.703125,0,0
-2.96011694445042E-05,9.22383696888573E-06,0.703125,0,0
-2.15275922528235E-05,9.21310675039422E-06,0.703125,0,0
-2.63900856225519E-05,1.13125679490622E-05,0.703125,0,0
-2.16451426240383E-05,9.07269986782921E-06,0.703125,0,0
-2.41427533183014E-05,9.28371719055576E-06,0.703125,0,0
-2.15707623283379E-05,8.91242416400928E-06,0.703125,0,0
-2.17851102206623E-05,9.3576582003152E-06,0.703125,0,0
-2.02750525204465E-05,9.76554838416632E-06,0.703125,0,0
-2.08421897696098E-05,1.07216155811329E-05,0.703125,0,0
-2.10349644476082E-05,1.06280494946986E-05,0.703125,0,0
-2.00022004719358E-05,9.29238922253717E-06,0.703125,0,0
-2.11048100027256E-05,9.09077698452165E-06,0.703125,0,0
-2.0781933926628E-05,1.02139001683099E-05,0.703125,0,0
-2.33816354011651E-05,1.23072641144972E-05,0.703125,0,0
-2.406078237982E-05,1.15301781988819E-05,0.703125,0,0
-2.56449111475376E-05,9.86207305686548E-06,0.703125,0,0
-2.35506213357439E-05,9.4437400548486E-06,0.703125,0,0
-2.34097315114923E-05,1.21723887787084E-05,0.703125,0,0
-2.20481488213409E-05,1.37073593577952E-05,0.703125,0,0
-2.31157191592501E-05,1.34972815430956E-05,0.703125,0,0
-2.32449674513191E-05,1.23252402772778E-05,0.703125,0,0
-2.40456483879825E-05,1.18464913612115E-05,0.703125,0,0
-2.37215244851541E-05,1.10825512820156E-05,0.703125,0,0
-2.42378719121916E-05,1.0551745617704E-05,0.703125,0,0
-2.4334118279512E-05,1.03120282801683E-05,0.703125,0,0
-2.47403058892814E-05,1.04675100374152E-05,0.703125,0,0
-1.82618150574854E-05,9.11465940589551E-06,0.703125,0,0
-2.57841511484003E-05,1.33669809656567E-05,0.703125,0,0
-2.28755816351622E-05,9.56197254708968E-06,0.703125,0,0
-3.2016327168094E-05,1.0585026757326E-05,0.703125,0,0
-2.92592394544045E-05,8.63096465764102E-06,0.703125,0,0
-3.20116487273481E-05,1.07280538941268E-05,0.703125,0,0
-2.93855264317244E-05,1.15884331535199E-05,0.703125,0,0
-3.0164441341185E-05,1.24631706057698E-05,0.703125,0,0
-2.8522537832032E-05,1.00063134595985E-05,0.703125,0,0
-2.64996106125182E-05,7.98305427451851E-06,0.703125,0,0
-2.46327108470723E-05,7.57024326958344E-06,0.703125,0,0
-2.24111063289456E-05,8.37234620121308E-06,0.703125,0,0
-2.26758620556211E-05,1.08494341475307E-05,0.703125,0,0
-2.05842115974519E-05,1.20343520393362E-05,0.703125,0,0
-2.01105885935249E-05,1.26641780298087E-05,0.703125,0,0
-1.82403600774705E-05,1.15798011393053E-05,0.703125,0,0
-2.03349209186854E-05,1.14150943772984E-05,0.703125,0,0
-2.11780752579216E-05,9.74988688540179E-06,0.703125,0,0
-2.19275098061189E-05,8.38144478620961E-06,0.703125,0,0
-1.90598711924395E-05,6.01010833634064E-06,0.703125,0,0
-1.77791025635088E-05,4.71754901809618E-06,0.703125,0,0
-1.70462644746294E-05,4.59549391962355E-06,0.703125,0,0
-1.73931057361187E-05,6.8347976593941E-06,0.703125,0,0
-1.57723825395806E-05,8.65807669470087E-06,0.703125,0,0
-1.51094418470166E-05,6.57603868603474E-06,0.703125,0,0
-1.5296949641197E-05,2.54442784353159E-06,0.703125,0,0
-1.72922082128935E-05,2.61496461462229E-06,0.703125,0,0
-1.62273208843544E-05,5.61044817004586E-06,0.703125,0,0
-2.37913845921867E-05,1.10600967673236E-05,0.703125,0,0
-1.92280622286489E-05,1.15445618575905E-05,0.703125,0,0
-2.44470775214722E-05,1.2533443623397E-05,0.703125,0,0
-2.27201398956822E-05,1.30841208374477E-05,0.703125,0,0
-2.62034773186315E-05,1.55042362166569E-05,0.703125,0,0
-2.59034150076332E-05,1.5085576706042E-05,0.703125,0,0
-2.69077172561083E-05,1.20477570817457E-05,0.703125,0,0
-2.52291029028129E-05,9.87834664556431E-06,0.703125,0,0
-2.37459080381086E-05,1.04894415926537E-05,0.703125,0,0
-2.29954694077605E-05,1.20202485049958E-05,0.703125,0,0
-2.30854457186069E-05,1.31734004753525E-05,0.703125,0,0
-2.53331563726533E-05,1.42529570439365E-05,0.703125,0,0
-2.51890742219985E-05,1.39843368742731E-05,0.703125,0,0
-2.58841810136801E-05,1.30440084831207E-05,0.703125,0,0
-2.47348871198483E-05,1.13717351268861E-05,0.703125,0,0
-2.56039402302122E-05,1.06827183117275E-05,0.703125,0,0
-2.61633158515906E-05,1.00736551758018E-05,0.703125,0,0
-2.89690142381005E-05,9.03308227861999E-06,0.703125,0,0
-2.93168814096134E-05,7.28521217752132E-06,0.703125,0,0
-2.96277285087854E-05,5.66475000596256E-06,0.703125,0,0
-2.91730284516234E-05,5.2961122491979E-06,0.703125,0,0
-3.03884426102741E-05,7.35334651835728E-06,0.703125,0,0
-3.0989420338301E-05,8.95993252925109E-06,0.703125,0,0
-3.142433706671E-05,9.153489372693E-06,0.703125,0,0
-3.01541422231821E-05,9.23912739381194E-06,0.703125,0,0
-2.78388342849212E-05,1.04046657725121E-05,0.703125,0,0
-2.08181008929387E-05,1.020619947667E-05,0.703125,0,0
-2.92272143269656E-05,1.60962499649031E-05,0.703125,0,0
-2.21049249375938E-05,1.25885417219251E-05,0.703125,0,0
-2.69922038569348E-05,1.32240575112519E-05,0.703125,0,0
-2.10072084882995E-05,1.18064363050507E-05,0.703125,0,0
-2.47593816311564E-05,1.41603686643066E-05,0.703125,0,0
-2.52237514359877E-05,1.29487170852371E-05,0.703125,0,0
-2.82092369161546E-05,1.33685725813848E-05,0.703125,0,0
-2.68789899564581E-05,1.34110932776821E-05,0.703125,0,0
-2.45728388108546E-05,1.3649321772391E-05,0.703125,0,0
-2.34436301980168E-05,1.32822069645044E-05,0.703125,0,0
-2.37795502471272E-05,1.18976404337445E-05,0.703125,0,0
-2.58923591900384E-05,1.11208273665397E-05,0.703125,0,0
-2.42830992647214E-05,9.47417629504343E-06,0.703125,0,0
-2.42689311562572E-05,1.01480154626188E-05,0.703125,0,0
-2.33064693020424E-05,1.17088357001194E-05,0.703125,0,0
-2.47844709519995E-05,1.47625451063504E-05,0.703125,0,0
-2.34442231885623E-05,1.54357003339101E-05,0.703125,0,0
-2.4490975192748E-05,1.51578842633171E-05,0.703125,0,0
-2.41996240220033E-05,1.38491022880771E-05,0.703125,0,0
-2.57639458141057E-05,1.34571509988746E-05,0.703125,0,0
-2.60815722867846E-05,1.28628171296441E-05,0.703125,0,0
-2.74823287327308E-05,1.26428012663382E-05,0.703125,0,0
-2.84478719549952E-05,1.07570604086504E-05,0.703125,0,0
-3.09101633320097E-05,9.05532670003595E-06,0.703125,0,0
-3.30954571836628E-05,1.00323422884685E-05,1.0546875,0,0
-3.37495730491355E-05,1.26148306662799E-05,1.0546875,0,0
-2.53242506005336E-05,9.9411827250151E-06,1.0546875,0,0
-3.45472617482301E-05,1.34680985865998E-05,1.0546875,0,0
-2.48265587288188E-05,1.01917212305125E-05,1.0546875,0,0
-3.16237747028936E-05,1.34625906866859E-05,1.0546875,0,0
-2.58955733443145E-05,1.06158722701366E-05,1.0546875,0,0
-2.86040849459823E-05,1.10344926724792E-05,1.0546875,0,0
-2.32374823099235E-05,9.07595585886156E-06,1.0546875,0,0
-2.1053940145066E-05,8.62913930177456E-06,1.0546875,0,0
-1.70876846823376E-05,7.35830963094486E-06,1.0546875,0,0
-1.54308618220966E-05,7.74290674598888E-06,1.0546875,0,0
-1.50634277815698E-05,8.72409509611316E-06,1.0546875,0,0
-1.37148108478868E-05,8.8567721832078E-06,1.0546875,0,0
-1.32192817545729E-05,1.00910829132772E-05,1.0546875,0,0
-9.50973662838805E-06,1.08622798506985E-05,1.0546875,0,0
-9.13893109100172E-06,1.23909430840285E-05,1.0546875,0,0
-6.8662425292132E-06,1.20691993288347E-05,1.0546875,0,0
-7.66515768191312E-06,1.22613691928564E-05,1.0546875,0,0
-6.45851150693488E-06,1.13402074930491E-05,1.0546875,0,0
-8.70823896548245E-06,1.21841048894566E-05,1.0546875,0,0
-7.78284356783843E-06,1.21512057376094E-05,1.0546875,0,0
-7.87160661275266E-06,1.24321268231142E-05,1.0546875,0,0
-6.84107499182574E-06,1.08805588752148E-05,1.0546875,0,0
-7.62890022087959E-06,9.1015745056211E-06,1.0546875,0,0
-6.88420595906791E-06,7.84937765274663E-06,1.0546875,0,0
-7.17140528649907E-06,7.62383251640131E-06,1.0546875,0,0
-7.4240961112082E-06,6.58563476463314E-06,1.0546875,0,0
-8.93528795131715E-06,6.34145271760644E-06,1.0546875,0,0
-7.40258838050067E-06,6.95626113156322E-06,1.0546875,0,0
-1.13225341920042E-05,1.14338017738191E-05,1.0546875,0,0
-1.11163999463315E-05,1.23571853691828E-05,1.0546875,0,0
-1.45342582982266E-05,1.58903949341038E-05,1.0546875,0,0
-1.41679065563949E-05,1.44478917718516E-05,1.0546875,0,0
-1.74066208273871E-05,1.54346089402679E-05,1.0546875,0,0
-2.02310766326264E-05,1.51957110574585E-05,1.0546875,0,0
-2.38605643971823E-05,1.50552605191479E-05,1.0546875,0,0
-2.58261297858553E-05,1.38278182930662E-05,1.0546875,0,0
-2.83564550045412E-05,1.41306454679579E-05,1.0546875,0,0
-2.9957411243231E-05,1.45458834595047E-05,1.0546875,0,0
-2.89593190245796E-05,1.37802080644178E-05,1.0546875,0,0
-2.82525252259802E-05,1.35467043946846E-05,1.0546875,0,0
-2.80579679383663E-05,1.26855438793427E-05,1.0546875,0,0
-3.02812331938185E-05,1.2793867426808E-05,1.0546875,0,0
-3.19557948387228E-05,1.25087690321379E-05,1.0546875,0,0
-3.35284348693676E-05,1.33257890411187E-05,1.0546875,0,0
-3.40501464961562E-05,1.33969297166914E-05,1.0546875,0,0
-3.51906091964338E-05,1.32705326905125E-05,1.0546875,0,0
-3.46613669535145E-05,1.12905172500177E-05,1.0546875,0,0
-3.36487973982003E-05,1.0076588296215E-05,1.0546875,0,0
-3.24651518894825E-05,9.70295968727442E-06,1.0546875,0,0
-3.30278999172151E-05,9.61032219493063E-06,1.0546875,0,0
-3.40177357429639E-05,8.95404809853062E-06,1.0546875,0,0
-3.43370484188199E-05,9.54131701291772E-06,1.0546875,0,0
-3.35922850354109E-05,1.02243920991896E-05,1.0546875,0,0
-3.38283753080759E-05,1.02344774859375E-05,1.0546875,0,0
-2.84040088445181E-05,8.57972008816432E-06,1.0546875,0,0
-4.04951460950542E-05,1.21885759654106E-05,1.0546875,0,0
-3.0016892196727E-05,9.92775676422752E-06,1.0546875,0,0
-3.65549640264362E-05,1.27482235257048E-05,1.0546875,0,0
-2.96232956316089E-05,1.08539388747886E-05,1.0546875,0,0
-3.30493458022829E-05,1.12262550828746E-05,1.0546875,0,0
-3.08386115648318E-05,8.81821415532613E-06,1.0546875,0,0
-3.25093533319887E-05,8.18898388388334E-06,1.0546875,0,0
-3.00631054415135E-05,6.66585447106627E-06,1.0546875,0,0
-2.89994677586947E-05,6.14673763266183E-06,1.0546875,0,0
-2.8301872589509E-05,7.3806691034406E-06,1.0546875,0,0
-2.71798489848152E-05,9.45968076848658E-06,1.0546875,0,0
-2.87393795588287E-05,1.16840346890967E-05,1.0546875,0,0
-2.81301981885917E-05,1.16702703962801E-05,1.0546875,0,0
-3.04986315313727E-05,1.26998647829168E-05,1.0546875,0,0
-2.87791626760736E-05,1.36404742079321E-05,1.0546875,0,0
-2.85065507341642E-05,1.57554022734985E-05,1.0546875,0,0
-2.46235085796798E-05,1.57339145516744E-05,1.0546875,0,0
-2.49577187787509E-05,1.43526040119468E-05,1.0546875,0,0
-2.43458944169106E-05,1.13117366709048E-05,1.0546875,0,0
-2.64078717009397E-05,1.07584673969541E-05,1.0546875,0,0
-2.59301541518653E-05,1.06036650322494E-05,1.0546875,0,0
-2.58150503213983E-05,9.93308640317991E-06,1.0546875,0,0
-2.44406837737188E-05,8.73747103469213E-06,1.0546875,0,0
-2.46423714997945E-05,8.97259451448917E-06,1.0546875,0,0
-2.42941314354539E-05,9.99894291453529E-06,1.0546875,0,0
-2.43126123677939E-05,1.10027131086099E-05,1.0546875,0,0
-1.9913466530852E-05,8.44327860249905E-06,1.0546875,0,0
-2.86115191556746E-05,1.08127051134943E-05,1.0546875,0,0
-2.30274545174325E-05,6.66853247821564E-06,1.0546875,0,0
-2.85383994196309E-05,8.7797752712504E-06,1.0546875,0,0
-2.38495049416088E-05,7.06520222593099E-06,1.0546875,0,0
-2.67245977738639E-05,9.78896605374757E-06,1.0546875,0,0
-2.53924281423679E-05,1.1195464139746E-05,1.0546875,0,0
-2.76906721410342E-05,1.21979819596163E-05,1.0546875,0,0
-2.92560071102344E-05,1.0741462574515E-05,1.0546875,0,0
-3.1535262678517E-05,9.64242826739792E-06,1.0546875,0,0
-3.36325902026147E-05,8.9740951807471E-06,1.0546875,0,0
-3.33744246745482E-05,8.06959724286571E-06,1.0546875,0,0
-3.30979455611669E-05,7.55629753257381E-06,1.0546875,0,0
-3.09285023831762E-05,6.98373651175643E-06,1.0546875,0,0
-3.12012671201956E-05,8.90223236638121E-06,1.0546875,0,0
-2.94055571430363E-05,9.26258144318126E-06,1.0546875,0,0
-3.0000051992829E-05,8.6388026829809E-06,1.0546875,0,0
-2.80865278909914E-05,6.9773341238033E-06,1.0546875,0,0
-2.75946204055799E-05,7.64364358474268E-06,1.0546875,0,0
-2.60685756074963E-05,8.40766824694583E-06,1.0546875,0,0
-2.70715700025903E-05,9.00021677807672E-06,1.0546875,0,0
-2.67073046416044E-05,8.07022661319934E-06,1.0546875,0,0
-2.60493961832253E-05,9.28007102629635E-06,1.0546875,0,0
-2.37622534768889E-05,1.1056551556976E-05,1.0546875,0,0
-2.21805876208236E-05,1.11491326606483E-05,1.0546875,0,0
-2.12764298339607E-05,1.02416743175127E-05,1.0546875,0,0
-1.96687433344778E-05,9.91846445685951E-06,1.0546875,0,0
-1.40546835609712E-05,8.45075464894762E-06,1.0546875,0,0
-1.99014157260535E-05,1.18557982204948E-05,1.0546875,0,0
-1.5347104636021E-05,9.97713686956558E-06,1.0546875,0,0
-1.96778291865485E-05,1.29723912323243E-05,1.0546875,0,0
-1.76544926944189E-05,1.0746756743174E-05,1.0546875,0,0
-2.01418988581281E-05,1.20575923574506E-05,1.0546875,0,0
-1.99242986127501E-05,1.16792589324177E-05,1.0546875,0,0
-2.18679560930468E-05,1.18683110486018E-05,1.0546875,0,0
-2.17076139961137E-05,9.55916675593471E-06,1.0546875,0,0
-2.18636869249167E-05,7.35839284971007E-06,1.0546875,0,0
-2.17357392102713E-05,5.95677647652337E-06,1.0546875,0,0
-2.01321254280629E-05,5.65454911338747E-06,1.0546875,0,0
-1.99635305762058E-05,8.23794653115328E-06,1.0546875,0,0
-1.95581178559223E-05,1.00375000329223E-05,1.0546875,0,0
-2.13408238778356E-05,1.08074136733194E-05,1.0546875,0,0
-2.17545984924072E-05,9.57539214141434E-06,1.0546875,0,0
-2.21459777094424E-05,1.06684374259203E-05,1.0546875,0,0
-1.92566421901574E-05,1.17575245894841E-05,1.0546875,0,0
-1.71529154613381E-05,1.36098969960585E-05,1.0546875,0,0
-1.38054920171271E-05,1.45239064295311E-05,1.0546875,0,0
-1.25340975500876E-05,1.59981736942427E-05,1.0546875,0,0
-1.21464699986973E-05,1.61391362780705E-05,1.0546875,0,0
-1.31263659568503E-05,1.54229364852654E-05,1.0546875,0,0
-1.35893478727667E-05,1.39421736093936E-05,1.0546875,0,0
-1.49661636896781E-05,1.38509130920283E-05,1.0546875,0,0
-1.74091765074991E-05,1.48081917359377E-05,1.0546875,0,0
-1.97032040887279E-05,1.51715094034444E-05,1.0546875,0,0
-1.6751588191255E-05,9.93197500065435E-06,1.0546875,0,0
-2.59019579971209E-05,1.26894638015074E-05,1.0546875,0,0
-2.34763501794077E-05,9.79464584816014E-06,1.0546875,0,0
-2.8491458579083E-05,1.41927130243857E-05,1.0546875,0,0
-2.59573535004165E-05,1.02400908872369E-05,1.0546875,0,0
-3.08438429783564E-05,1.07617070170818E-05,1.0546875,0,0
-3.071742321481E-05,1.13024061647593E-05,1.0546875,0,0
-3.0492034056806E-05,1.41767932291259E-05,1.0546875,0,0
-2.76685041171731E-05,1.48287190313567E-05,1.0546875,0,0
-2.68148123723222E-05,1.44351442941115E-05,1.0546875,0,0
-2.62387293332722E-05,1.37623374030227E-05,1.0546875,0,0
-2.48986016231356E-05,1.27562834677519E-05,1.0546875,0,0
-2.50425891863415E-05,1.24233456517686E-05,1.0546875,0,0
-2.4247068722616E-05,1.13628520921338E-05,1.0546875,0,0
-2.51974270213395E-05,1.1810442629212E-05,1.0546875,0,0
-2.45535993599333E-05,1.1835968507512E-05,1.0546875,0,0
-2.57302363024792E-05,1.2656723811233E-05,1.0546875,0,0
-2.45144874497782E-05,1.14207859951421E-05,1.0546875,0,0
-2.47216521529481E-05,1.13575688374112E-05,1.0546875,0,0
-2.39668079302646E-05,1.0587539691187E-05,1.0546875,0,0
-2.52724457823206E-05,1.02641242847312E-05,1.0546875,0,0
-2.59056432696525E-05,9.37191180128139E-06,1.0546875,0,0
-2.92544227704639E-05,9.61880141403526E-06,1.0546875,0,0
-3.39163561875466E-05,9.0097482825513E-06,1.0546875,0,0
-3.86731589969713E-05,9.91611523204483E-06,1.0546875,0,0
-3.99251766793896E-05,1.01549849205185E-05,1.0546875,0,0
-3.72557551600039E-05,9.08914080355316E-06,1.0546875,0,0
-2.62567482423037E-05,6.95409335094155E-06,1.0546875,0,0
-3.50016161974054E-05,1.09117117972346E-05,1.0546875,0,0
-2.24785871978384E-05,9.31048180063954E-06,1.0546875,0,0
-2.67958494077902E-05,1.04451573861297E-05,2.4609375,0,0
-1.88212889042916E-05,9.32701550482307E-06,2.4609375,0,0
-2.17889501072932E-05,1.19899978017202E-05,2.4609375,0,0
-1.93112227862002E-05,1.27614212033222E-05,2.4609375,0,0
-2.00909071281785E-05,1.38854393298971E-05,2.4609375,0,0
-1.60358595167054E-05,1.55595826072386E-05,2.4609375,0,0
-1.31557490021805E-05,1.75798013515305E-05,2.4609375,0,0
-1.19404357974418E-05,1.78608515852829E-05,2.4609375,0,0
-1.1233847544645E-05,1.58474140334874E-05,2.4609375,0,0
-1.30443349917186E-05,1.35960326588247E-05,2.4609375,0,0
-1.21560769912321E-05,1.20029853860615E-05,2.4609375,0,0
-1.47939617818338E-05,1.30036469272454E-05,2.4609375,0,0
-1.51448120959685E-05,1.33851353893988E-05,2.4609375,0,0
-1.74279921338893E-05,1.33525500132237E-05,2.4609375,0,0
-1.474089367548E-05,1.2857062756666E-05,2.4609375,0,0
-1.41954469654593E-05,1.32983368530404E-05,2.4609375,0,0
-1.19036094474723E-05,1.25936521726544E-05,2.4609375,0,0
-1.2674057870754E-05,1.19371952678193E-05,2.4609375,0,0
-1.17281133498182E-05,1.11216641016654E-05,2.4609375,0,0
-1.13675987449824E-05,1.09938573586987E-05,2.4609375,0,0
-9.23842162592337E-06,1.08102849480929E-05,2.4609375,0,0
-7.61842829888337E-06,1.06116040115012E-05,2.4609375,0,0
-6.45198724669172E-06,1.01027644632268E-05,2.4609375,0,0
-6.26432802164345E-06,1.01789237305638E-05,2.4609375,0,0
-5.79248990106862E-06,8.57611485116649E-06,2.4609375,0,0
-9.49945297179511E-06,1.32453960759449E-05,2.4609375,0,0
-8.24090511741815E-06,1.182859432447E-05,2.4609375,0,0
-8.61348416947294E-06,1.52479324242449E-05,2.4609375,0,0
-7.83865380071802E-06,1.32915356516605E-05,2.4609375,0,0
-9.91342221823288E-06,1.28116880659945E-05,2.4609375,0,0
-1.22563715194701E-05,1.18936768558342E-05,2.4609375,0,0
-1.56216538016452E-05,1.39749345180462E-05,2.4609375,0,0
-1.87549849215429E-05,1.53937489812961E-05,2.4609375,0,0
-2.05952310352586E-05,1.54662684508367E-05,2.4609375,0,0
-2.17805918509839E-05,1.45641870403779E-05,2.4609375,0,0
-2.2038489987608E-05,1.36228327392018E-05,2.4609375,0,0
-2.29022680287017E-05,1.31641636471613E-05,2.4609375,0,0
-2.49093645834364E-05,1.1347164218023E-05,2.4609375,0,0
-2.91389806079678E-05,1.09982220237725E-05,2.4609375,0,0
-3.23998319800012E-05,1.10240089270519E-05,2.4609375,0,0
-3.41379418387078E-05,1.16760420496576E-05,2.4609375,0,0
-3.35613331117202E-05,1.08683971120627E-05,2.4609375,0,0
-3.24754837492947E-05,1.06388997664908E-05,2.4609375,0,0
-3.18352795147803E-05,9.73158967099153E-06,2.4609375,0,0
-3.2655803806847E-05,9.2077616500319E-06,2.4609375,0,0
-3.39336693286896E-05,7.74683030613232E-06,2.4609375,0,0
-3.53583272953983E-05,5.89538694839575E-06,2.4609375,0,0
-3.57676799467299E-05,4.22770153818419E-06,2.4609375,0,0
-3.53915384039283E-05,5.70874180993997E-06,2.4609375,0,0
-3.5361634218134E-05,8.25405368232168E-06,2.4609375,0,0
-3.61899183189962E-05,9.23303105082596E-06,2.4609375,0,0
-3.05711146211252E-05,5.58024748897878E-06,2.4609375,0,0
-4.3865500629181E-05,5.83357677896856E-06,2.4609375,0,0
-3.41397499141749E-05,2.86173099084408E-06,2.4609375,0,0
-4.27269951615017E-05,6.40497819404118E-06,2.4609375,0,0
-3.544947685441E-05,5.92488277106895E-06,2.4609375,0,0
-3.75749987142626E-05,6.02710224484326E-06,2.4609375,0,0
-3.20257422572467E-05,5.48598018212942E-06,2.4609375,0,0
-3.32376039295923E-05,6.70597592034028E-06,2.4609375,0,0
-3.17256344715133E-05,5.92270316701615E-06,2.4609375,0,0
-3.12496413243935E-05,5.0694475248747E-06,2.4609375,0,0
-3.2699423172744E-05,4.55775489172083E-06,2.4609375,0,0
-3.37964411301073E-05,3.79486778001592E-06,2.4609375,0,0
-3.53078285115771E-05,3.15651800519845E-06,2.4609375,0,0
-3.29372414853424E-05,3.33457614942745E-06,2.4609375,0,0
-3.38790341629647E-05,5.51232005818747E-06,2.4609375,0,0
-3.15267752739601E-05,7.25182098904043E-06,2.4609375,0,0
-3.21339975926094E-05,8.9528593889554E-06,2.4609375,0,0
-2.90371935989242E-05,8.72640976012917E-06,2.4609375,0,0
-2.8620233933907E-05,8.01908572611865E-06,2.4609375,0,0
-2.53145826718537E-05,6.77476236887742E-06,2.4609375,0,0
-2.45259871007875E-05,8.53290111990646E-06,2.4609375,0,0
-2.18422046600608E-05,1.07803134596907E-05,2.4609375,0,0
-2.26225638471078E-05,1.10925293483888E-05,2.4609375,0,0
-2.34790677495766E-05,9.52375285123708E-06,2.4609375,0,0
-2.51257424679352E-05,9.42141832638299E-06,2.4609375,0,0
-2.55616705544526E-05,1.09063039417379E-05,2.4609375,0,0
-2.52667123277206E-05,1.47704131450155E-05,2.4609375,0,0
-1.92353127204115E-05,1.44175237437594E-05,2.4609375,0,0
-2.52738645940553E-05,1.86830711754737E-05,2.4609375,0,0
-1.68330043379683E-05,1.09280008473434E-05,2.4609375,0,0
-2.28745120693929E-05,1.39868034239043E-05,2.4609375,0,0
-2.02663413801929E-05,1.14806343844975E-05,2.4609375,0,0
-2.30023779295152E-05,1.31957913254155E-05,2.4609375,0,0
-2.08460132853361E-05,1.07881915027974E-05,2.4609375,0,0
-2.25080839300063E-05,1.20165359476232E-05,2.4609375,0,0
-2.18200584640726E-05,1.23951567729819E-05,2.4609375,0,0
-2.07888988370541E-05,1.27210532809841E-05,2.4609375,0,0
-1.96954752027523E-05,1.17076970127528E-05,2.4609375,0,0
-1.74044926097849E-05,9.77758736553369E-06,2.4609375,0,0
-1.75025688804453E-05,1.05373910628259E-05,2.4609375,0,0
-1.69496834132588E-05,1.11430445031147E-05,2.4609375,0,0
-1.82339317689184E-05,1.30259613797534E-05,2.4609375,0,0
-1.68902570294449E-05,1.25003052744432E-05,2.4609375,0,0
-1.90041791938711E-05,1.30006174003938E-05,2.4609375,0,0
-2.02251412702026E-05,1.18868474601186E-05,2.4609375,0,0
-2.18153836613055E-05,1.34427682496607E-05,2.4609375,0,0
-1.89957918337313E-05,1.3674908586836E-05,2.4609375,0,0
-1.74686610989738E-05,1.4338264008984E-05,2.4609375,0,0
-1.61865100380965E-05,1.37520264615887E-05,2.4609375,0,0
-1.74433807842433E-05,1.31754559333785E-05,2.4609375,0,0
-1.97057215700625E-05,1.11057743197307E-05,2.4609375,0,0
-2.33134996960871E-05,1.06556544778869E-05,2.4609375,0,0
-2.54759415838635E-05,1.16609799079015E-05,2.4609375,0,0
-2.46121435338864E-05,1.23875215649605E-05,2.4609375,0,0
-1.75757068063831E-05,8.58922066981904E-06,2.4609375,0,0
-2.54793376370799E-05,1.09975471787038E-05,2.4609375,0,0
-2.11892329389229E-05,7.32972102923668E-06,2.4609375,0,0
-2.58647232840303E-05,1.10477431007894E-05,2.4609375,0,0
-2.02774172066711E-05,1.08164740595385E-05,2.4609375,0,0
-2.17675533349393E-05,1.21731163744698E-05,2.4609375,0,0
-1.9652341507026E-05,1.01292980616563E-05,2.4609375,0,0
-2.02954724954907E-05,8.91354557097657E-06,2.4609375,0,0
-1.94609710888471E-05,7.52431151340716E-06,2.4609375,0,0
-1.88743870239705E-05,8.31035231385613E-06,2.4609375,0,0
-1.86177476280136E-05,8.84173186932458E-06,2.4609375,0,0
-1.90024056792026E-05,7.40198584026075E-06,2.4609375,0,0
-2.0745328583871E-05,5.98793394601671E-06,2.4609375,0,0
-2.07879056688398E-05,4.42235796072055E-06,2.4609375,0,0
-2.32775055337697E-05,4.55160943602095E-06,2.4609375,0,0
-2.44643688347423E-05,4.06656499762903E-06,2.4609375,0,0
-2.71392946160631E-05,4.54076598543907E-06,2.4609375,0,0
-2.73916684818687E-05,3.6750227536686E-06,2.4609375,0,0
-2.8782333174604E-05,4.67093650513561E-06,2.4609375,0,0
-2.78371662716381E-05,6.36696267974912E-06,2.4609375,0,0
-2.78186362265842E-05,8.46645343699493E-06,2.4609375,0,0
-2.6211944714305E-05,9.05247088667238E-06,2.4609375,0,0
-2.60651413555024E-05,1.06527077150531E-05,2.4609375,0,0
-2.56927814916708E-05,1.1364470992703E-05,2.4609375,0,0
-2.58714662777493E-05,1.03626789496047E-05,2.4609375,0,0
-2.49471213464858E-05,9.38647644943558E-06,2.4609375,0,0
-2.29354482144117E-05,1.14701488200808E-05,2.4609375,0,0
-1.75780533027137E-05,1.22528972497093E-05,2.4609375,0,0
-2.60005817835918E-05,1.71513584064087E-05,2.4609375,0,0
-2.19594858208438E-05,1.16308528959053E-05,2.4609375,0,0
-2.9006825570832E-05,1.39666699396912E-05,2.4609375,0,0
-2.67927625827724E-05,1.20830036394182E-05,2.4609375,0,0
-2.93401626549894E-05,1.38980522024212E-05,2.4609375,0,0
-2.93592220259598E-05,1.2267542842892E-05,2.4609375,0,0
-3.27861489495263E-05,1.30417547552497E-05,2.4609375,0,0
-3.33731222781353E-05,1.32485938593163E-05,2.4609375,0,0
-3.23544372804463E-05,1.39241719807615E-05,2.4609375,0,0
-3.15788856823929E-05,1.46936272358289E-05,2.4609375,0,0
-3.05683242913801E-05,1.45416561281309E-05,2.4609375,0,0
-3.15579236485064E-05,1.45213780342601E-05,2.4609375,0,0
-3.20041181112174E-05,1.24311063700588E-05,2.4609375,0,0
-3.3697306207614E-05,1.17365252663149E-05,2.4609375,0,0
-3.15527759084944E-05,1.10454548121197E-05,2.4609375,0,0
-3.00632163998671E-05,1.2209053238621E-05,2.4609375,0,0
-2.81351603916846E-05,1.1136645298393E-05,2.4609375,0,0
-2.8666192520177E-05,1.0547003512329E-05,2.4609375,0,0
-2.72416455118218E-05,1.01435161923291E-05,2.4609375,0,0
-2.64679820247693E-05,1.18358084364445E-05,2.4609375,0,0
-2.31154754146701E-05,1.19454398372909E-05,2.4609375,0,0
-2.05302803806262E-05,1.1397200069041E-05,2.4609375,0,0
-2.03876224986743E-05,9.87360454018926E-06,2.4609375,0,0
-2.09075369639322E-05,9.37712229642784E-06,2.4609375,0,0
-1.83891334017972E-05,8.95502489584032E-06,2.4609375,0,0
-1.52036527651944E-05,8.52516586746788E-06,2.4609375,0,0
-9.41081361816032E-06,7.5066363933729E-06,2.4609375,0,0
-1.2549478924484E-05,1.24665066323359E-05,2.4609375,0,0
-9.54919960349798E-06,1.19398418974015E-05,2.4609375,0,0
-1.29996424220735E-05,1.37547831400298E-05,2.4609375,0,0
-1.1740648005798E-05,1.13896658149315E-05,2.4609375,0,0
-1.47575865412364E-05,1.17664285426144E-05,6.6796875,0,0
-1.53291039168835E-05,1.23894415082759E-05,6.6796875,0,0
-1.8501099475543E-05,1.43008328450378E-05,6.6796875,0,0
-2.09761383302975E-05,1.38936911753262E-05,6.6796875,0,0
-2.32413494813954E-05,1.26972799989744E-05,6.6796875,0,0
-2.53996240644483E-05,1.24285961646819E-05,6.6796875,0,0
-2.51632118306588E-05,1.30258922581561E-05,6.6796875,0,0
-2.42951064137742E-05,1.5012009498605E-05,6.6796875,0,0
-2.29322631639661E-05,1.5624456864316E-05,6.6796875,0,0
-2.3926084395498E-05,1.54036006279057E-05,6.6796875,0,0
-2.46032577706501E-05,1.40780630317749E-05,6.6796875,0,0
-2.5282914066338E-05,1.32315235532587E-05,6.6796875,0,0
-2.44904094870435E-05,1.14197191578569E-05,6.6796875,0,0
-2.63091587839881E-05,1.04721748357406E-05,6.6796875,0,0
-2.76578102784697E-05,9.41422240430256E-06,6.6796875,0,0
-2.75428828899749E-05,9.53496692090994E-06,6.6796875,0,0
-2.59036514762556E-05,1.01877676570439E-05,6.6796875,0,0
-2.73885780188721E-05,1.08689973785658E-05,6.6796875,0,0
-3.0211625926313E-05,1.00190163720981E-05,6.6796875,0,0
-3.14104472636245E-05,8.29282816994237E-06,6.6796875,0,0
-3.07078626065049E-05,7.76506749389227E-06,6.6796875,0,0
-2.98071900033392E-05,8.5668316387455E-06,6.6796875,0,0
-2.29797933570808E-05,8.31730085337767E-06,6.6796875,0,0
-3.28657588397618E-05,1.06052939372603E-05,6.6796875,0,0
-2.69842876150506E-05,6.66442929286859E-06,6.6796875,0,0
-3.52490023942664E-05,1.04665814433247E-05,6.6796875,0,0
-3.04441782645881E-05,1.17880990728736E-05,6.6796875,0,0
-3.28193964378443E-05,1.42364733619615E-05,6.6796875,0,0
-2.96083435387118E-05,1.22067276606685E-05,6.6796875,0,0
-3.13486925733741E-05,1.14957720143138E-05,6.6796875,0,0
-3.06628498947248E-05,1.07569931060425E-05,6.6796875,0,0
-2.99148414342199E-05,1.14914346340811E-05,6.6796875,0,0
-2.86444083030801E-05,1.35857499117265E-05,6.6796875,0,0
-2.66199149336899E-05,1.42275539474213E-05,6.6796875,0,0
-2.59678599832114E-05,1.49878824231564E-05,6.6796875,0,0
-2.17487777263159E-05,1.46219872476649E-05,6.6796875,0,0
-1.80373845068971E-05,1.56127935042605E-05,6.6796875,0,0
-1.14433350972831E-05,1.58190832735272E-05,6.6796875,0,0
-9.24540108826477E-06,1.4887214092596E-05,6.6796875,0,0
-7.54894199417322E-06,1.15702459879685E-05,6.6796875,0,0
-1.02557769423584E-05,1.10763185148244E-05,6.6796875,0,0
-1.09928396341274E-05,1.29314585137763E-05,6.6796875,0,0
-1.34223919303622E-05,1.58668553922325E-05,6.6796875,0,0
-1.4461315004155E-05,1.70217845152365E-05,6.6796875,0,0
-1.63265176524874E-05,1.68435362866148E-05,6.6796875,0,0
-1.643580981181E-05,1.47423543239711E-05,6.6796875,0,0
-1.75471450347686E-05,1.23849322335445E-05,6.6796875,0,0
-1.75856857822509E-05,9.70835935731884E-06,6.6796875,0,0
-1.76016001205426E-05,9.57449174165959E-06,6.6796875,0,0
-1.41967020681477E-05,1.048923968483E-05,6.6796875,0,0
-1.99566493392922E-05,1.39713683893206E-05,6.6796875,0,0
-1.49315274029505E-05,6.61491685605142E-06,6.6796875,0,0
-1.79230792127782E-05,6.52440667181509E-06,6.6796875,0,0
-1.41525570143131E-05,5.24397182743996E-06,6.6796875,0,0
-1.62340857059462E-05,7.48231332181604E-06,6.6796875,0,0
-1.59990631800611E-05,6.98943449606304E-06,6.6796875,0,0
-1.77909587364411E-05,8.20350760477595E-06,6.6796875,0,0
-1.80083661689423E-05,8.5533429228235E-06,6.6796875,0,0
-1.84215205081273E-05,9.15012606128585E-06,6.6796875,0,0
-1.96836081158835E-05,9.61453952186275E-06,6.6796875,0,0
-2.12868380913278E-05,9.70364362729015E-06,6.6796875,0,0
-2.43814210989513E-05,1.00233892226242E-05,6.6796875,0,0
-2.62024768744595E-05,8.25887491373578E-06,6.6796875,0,0
-2.87858147203224E-05,6.72809619572945E-06,6.6796875,0,0
-2.86497561319266E-05,4.11757673646207E-06,6.6796875,0,0
-2.8909846150782E-05,4.66812889499124E-06,6.6796875,0,0
-2.68503863480873E-05,6.54524774290621E-06,6.6796875,0,0
-2.71108583547175E-05,9.68696986092255E-06,6.6796875,0,0
-2.85616897599539E-05,1.0066094546346E-05,6.6796875,0,0
-3.15486431645695E-05,9.25476160773542E-06,6.6796875,0,0
-3.29385984514374E-05,8.01621717982925E-06,6.6796875,0,0
-3.56844138877932E-05,8.90911178430542E-06,6.6796875,0,0
-3.78468394046649E-05,1.1292303497612E-05,6.6796875,0,0
-4.0042657929007E-05,1.26433833429473E-05,6.6796875,0,0
-4.1248287743656E-05,1.1328728760418E-05,6.6796875,0,0
-4.0700520912651E-05,1.11507233668817E-05,6.6796875,0,0
-3.14084136334714E-05,1.0771203051263E-05,6.6796875,0,0
-4.34291941928677E-05,1.64545508596348E-05,6.6796875,0,0
-3.09806200675666E-05,1.26274026115425E-05,6.6796875,0,0
-3.75516319763847E-05,1.32447166834027E-05,6.6796875,0,0
-2.83688932540827E-05,1.06023462649318E-05,6.6796875,0,0
-3.09859933622647E-05,1.20329495985061E-05,6.6796875,0,0
-2.56779367191484E-05,1.07956211650162E-05,6.6796875,0,0
-2.5505247322144E-05,1.13824235086213E-05,6.6796875,0,0
-2.16308508242946E-05,1.23462095871218E-05,6.6796875,0,0
-1.82825369847706E-05,1.30321268443367E-05,6.6796875,0,0
-1.50209916682797E-05,1.20247477752855E-05,6.6796875,0,0
-1.10050168586895E-05,1.09183492895681E-05,6.6796875,0,0
-1.01366031231009E-05,1.09720785985701E-05,6.6796875,0,0
-7.63253046898171E-06,1.00423576441244E-05,6.6796875,0,0
-1.02248504845193E-05,9.71786084846826E-06,6.6796875,0,0
-1.01293999250629E-05,7.93115668784594E-06,6.6796875,0,0
-1.33765543068876E-05,7.41018448024988E-06,6.6796875,0,0
-1.3787725038128E-05,6.71684301778441E-06,6.6796875,0,0
-1.7943479178939E-05,7.84862731961766E-06,6.6796875,0,0
-1.80629067472182E-05,9.3916678451933E-06,6.6796875,0,0
-1.90229820873355E-05,1.30909011204494E-05,6.6796875,0,0
-1.75967415998457E-05,1.4826342521701E-05,6.6796875,0,0
-2.01935490622418E-05,1.5891419025138E-05,6.6796875,0,0
-2.26287884288467E-05,1.65721121447859E-05,6.6796875,0,0
-2.47467014560243E-05,1.68733477039495E-05,6.6796875,0,0
-2.49942495429423E-05,1.60809158842312E-05,6.6796875,0,0
-2.51046567427693E-05,1.5521847672062E-05,6.6796875,0,0
-1.81397117557935E-05,1.31998685901635E-05,6.6796875,0,0
-2.17611250263872E-05,1.99607929971535E-05,6.6796875,0,0
-1.1768662261602E-05,1.61447715072427E-05,6.6796875,0,0
-1.70521507243393E-05,1.88641970453318E-05,6.6796875,0,0
-1.33226776597439E-05,1.55952620843891E-05,6.6796875,0,0
-1.54034514707746E-05,1.70467919815565E-05,6.6796875,0,0
-1.26924642245285E-05,1.52774264279287E-05,6.6796875,0,0
-1.42751914609107E-05,1.41221689773374E-05,6.6796875,0,0
-1.51624044519849E-05,1.07088117147214E-05,6.6796875,0,0
-1.67996149684768E-05,8.80438437889097E-06,6.6796875,0,0
-1.88672602234874E-05,9.70011842582608E-06,6.6796875,0,0
-1.96711625903845E-05,1.08391304820543E-05,6.6796875,0,0
-2.11915103136562E-05,1.14312779260217E-05,6.6796875,0,0
-2.0009787476738E-05,8.52812809171155E-06,6.6796875,0,0
-2.12183549592737E-05,6.69582550472114E-06,6.6796875,0,0
-2.21798218262848E-05,5.84792132940493E-06,6.6796875,0,0
-2.59883363469271E-05,7.38582366466289E-06,6.6796875,0,0
-2.53420803346671E-05,7.09572032064898E-06,6.6796875,0,0
-2.34923591051484E-05,8.71360862220172E-06,6.6796875,0,0
-1.95601151062874E-05,1.05731724033831E-05,6.6796875,0,0
-1.83747361006681E-05,1.21618604680407E-05,6.6796875,0,0
-1.65240071510198E-05,1.06766747194342E-05,6.6796875,0,0
-1.64596258400707E-05,9.77345280261943E-06,6.6796875,0,0
-1.61617517733248E-05,9.06797868083231E-06,6.6796875,0,0
-1.64365519594867E-05,9.27942073758459E-06,6.6796875,0,0
-1.71867141034454E-05,1.00207389550633E-05,6.6796875,0,0
-1.82201001734938E-05,1.05343551695114E-05,6.6796875,0,0
-1.67763810168253E-05,8.58971907291561E-06,6.6796875,0,0
-2.62697794823907E-05,1.16526753117796E-05,6.6796875,0,0
-2.42032401729375E-05,7.52874166209949E-06,6.6796875,0,0
-3.05593348457478E-05,8.95924404176185E-06,6.6796875,0,0
-3.02001390082296E-05,7.8595239756396E-06,6.6796875,0,0
-3.44493455486372E-05,9.28667668631533E-06,6.6796875,0,0
-3.28594069287647E-05,7.69563484936953E-06,6.6796875,0,0
-3.39533980877604E-05,7.90033755038166E-06,6.6796875,0,0
-3.47958230122458E-05,6.87429155732389E-06,6.6796875,0,0
-3.6496599932434E-05,6.12308895142633E-06,6.6796875,0,0
-3.74624141841196E-05,6.154574748507E-06,6.6796875,0,0
-3.63242688763421E-05,6.0508209571708E-06,6.6796875,0,0
-3.55736083292868E-05,6.86949169903528E-06,6.6796875,0,0
-3.43812607752625E-05,7.55320024836692E-06,6.6796875,0,0
-3.55756055796519E-05,9.05328397493577E-06,6.6796875,0,0
-3.42617349815555E-05,9.16271346795838E-06,6.6796875,0,0
-3.41665436280891E-05,1.00716342785745E-05,6.6796875,0,0
-3.32804738718551E-05,9.73990700003924E-06,6.6796875,0,0
-3.45314292644616E-05,9.64605624176329E-06,6.6796875,0,0
-3.39804064424243E-05,8.36590425024042E-06,6.6796875,0,0
-3.43255269399378E-05,8.56512451719027E-06,6.6796875,0,0
-3.37220444635022E-05,9.14857264433522E-06,6.6796875,0,0
-3.52338392985985E-05,1.01917839856469E-05,6.6796875,0,0
-3.64743646059651E-05,1.11819845187711E-05,6.6796875,0,0
-3.65188279829454E-05,1.26796112454031E-05,6.6796875,0,0
-3.50575173797552E-05,1.36814005600172E-05,6.6796875,0,0
-3.38683894369751E-05,1.4702031876368E-05,6.6796875,0,0
-2.58522868534783E-05,1.34832589537837E-05,6.6796875,0,0
-3.58638062607497E-05,1.96773489733459E-05,6.6796875,0,0
-2.73028981609968E-05,1.43607594509376E-05,6.6796875,0,0
-3.68567089026328E-05,1.53120199684054E-05,6.6796875,0,0
-3.32355411956087E-05,1.17606496132794E-05,6.6796875,0,0
-3.64737643394619E-05,1.48012877616566E-05,6.6796875,0,0
-3.23864369420335E-05,1.36681028379826E-05,6.6796875,0,0
-3.32446943502873E-05,1.37206698127557E-05,6.6796875,0,0
-3.22440027957782E-05,1.34800475279917E-05,6.6796875,0,0
-3.09584793285467E-05,1.32603126985487E-05,6.6796875,0,0
-2.75785041594645E-05,1.20226513899979E-05,6.6796875,0,0
-2.31271642405773E-05,9.74684280663496E-06,6.6796875,0,0
-2.21993504965212E-05,9.06107652554056E-06,6.6796875,0,0
-2.01184466277482E-05,8.05448871687986E-06,6.6796875,0,0
-2.05130545509746E-05,8.81280175235588E-06,6.6796875,0,0
-1.75339064298896E-05,8.93000196811045E-06,6.6796875,0,0
-1.70484145201044E-05,1.14579934233916E-05,6.6796875,0,0
-1.46291895362083E-05,1.13097594294231E-05,6.6796875,0,0
-1.71305473486427E-05,9.60038323682966E-06,6.6796875,0,0
-1.79067028511781E-05,6.94101117915125E-06,6.6796875,0,0
-1.89210259122774E-05,7.65820095693925E-06,6.6796875,0,0
-1.62927153724013E-05,7.91608272265876E-06,6.6796875,0,0
-1.49402312672464E-05,8.08247841632692E-06,6.6796875,0,0
-1.36467888296465E-05,6.51775462756632E-06,6.6796875,0,0
-1.38587147375802E-05,5.24351617059438E-06,6.6796875,0,0
-1.41768678076915E-05,5.00740361530916E-06,6.6796875,0,0
-1.60679192049429E-05,4.58590420748806E-06,6.6796875,0,0
-1.35234231493087E-05,4.79845130030299E-06,6.6796875,0,0
-1.92453408089932E-05,7.13216013537021E-06,6.6796875,0,0
-1.54676072270377E-05,6.15077260590624E-06,6.6796875,0,0
-2.04421066882787E-05,8.13307724456536E-06,6.6796875,0,0
-2.01605816982919E-05,8.43352609081194E-06,6.6796875,0,0
-2.45084447669797E-05,9.80205095402198E-06,6.6796875,0,0
-2.41121942963218E-05,9.92352397588547E-06,6.6796875,0,0
-2.36016639973968E-05,1.05364388218732E-05,6.6796875,0,0
-2.00842077902053E-05,1.03746388049331E-05,6.6796875,0,0
-1.77311776496936E-05,9.8173995866091E-06,6.6796875,0,0
-1.87920213647885E-05,9.28729696170194E-06,6.6796875,0,0
-2.12801933230367E-05,9.11096412892221E-06,6.6796875,0,0
-2.42755413637497E-05,1.01546129371854E-05,6.6796875,0,0
-2.48757769440999E-05,1.07219575511408E-05,6.6796875,0,0
-2.696827868931E-05,1.15710172394756E-05,6.6796875,0,0
-2.70119890046772E-05,1.16741221063421E-05,6.6796875,0,0
-2.67969535343582E-05,1.22599285532488E-05,6.6796875,0,0
-2.4505110559403E-05,1.29026802824228E-05,6.6796875,0,0
-2.50166358455317E-05,1.46287302413839E-05,6.6796875,0,0
-2.50682896876242E-05,1.56210990098771E-05,6.6796875,0,0
-2.46389990934404E-05,1.50390278577106E-05,6.6796875,0,0
-2.21871687244857E-05,1.31887009047205E-05,6.6796875,0,0
-2.11410606425488E-05,1.25392916743294E-05,6.6796875,0,0
-2.18744153244188E-05,1.20944478112506E-05,6.6796875,0,0
-2.4355005734833E-05,1.16993305709912E-05,6.6796875,0,0
-2.62858811765909E-05,1.12641318992246E-05,6.6796875,0,0
-2.74183603323763E-05,1.0177477633988E-05,6.6796875,0,0
-2.17661472561304E-05,8.0298850662075E-06,6.6796875,0,0
-3.09814495267347E-05,1.33940529849497E-05,6.6796875,0,0
-2.54764927376527E-05,1.26986087707337E-05,6.6796875,0,0
-3.28298847307451E-05,1.49035322465352E-05,6.6796875,0,0
-2.75844286079519E-05,1.2315090316406E-05,6.6796875,0,0
-2.91913729597582E-05,1.11386589196627E-05,6.6796875,0,0
-2.34758863371098E-05,8.6401387306978E-06,6.6796875,0,0
-2.1613426724798E-05,8.69968425831757E-06,6.6796875,0,0
-1.9124046957586E-05,9.40290738071781E-06,6.6796875,0,0
-1.87263831321616E-05,1.0717013537942E-05,6.6796875,0,0
-1.8110189557774E-05,1.28277542899013E-05,6.6796875,0,0
-1.56199621414999E-05,1.41625778269372E-05,6.6796875,0,0
-1.55354318849277E-05,1.4133618606138E-05,6.6796875,0,0
-1.51536469275015E-05,1.33128669403959E-05,6.6796875,0,0
-1.76186294993386E-05,1.40583260872518E-05,6.6796875,0,0
-1.66205245477613E-05,1.35614336613799E-05,6.6796875,0,0
-1.67168473126367E-05,1.3186073374527E-05,6.6796875,0,0
-1.41573027576669E-05,1.25345504784491E-05,6.6796875,0,0
-1.37246051963302E-05,1.28441834021942E-05,6.6796875,0,0
-9.26491611608071E-06,1.27163266370189E-05,6.6796875,0,0
-5.16101727043861E-06,1.24148609756958E-05,6.6796875,0,0
-2.28861310347384E-07,1.03637676147628E-05,6.6796875,0,0
1.26610950701433E-06,9.66918560152408E-06,6.6796875,0,0
1.77303081727587E-06,1.01612058642786E-05,6.6796875,0,0
6.70211989017844E-07,1.03083375506685E-05,6.6796875,0,0
-2.31297372010886E-06,1.0460173143656E-05,6.6796875,0,0
-6.95548988005612E-06,1.1989242011623E-05,6.6796875,0,0
-9.72197722148849E-06,1.03347047115676E-05,6.6796875,0,0
-1.71017018146813E-05,1.34042138597579E-05,6.6796875,0,0
-1.90345181181328E-05,8.27667918201769E-06,6.6796875,0,0
-2.65282469626982E-05,1.14418662633398E-05,6.6796875,0,0
-3.05458997900132E-05,1.0736003787315E-05,6.6796875,0,0
-3.34709257003851E-05,1.42844683068688E-05,6.6796875,0,0
-3.24851680488791E-05,1.45895000969176E-05,6.6796875,0,0
-3.49422880390193E-05,1.42860653795651E-05,6.6796875,0,0
-3.87303552997764E-05,1.21930015666294E-05,6.6796875,0,0
-4.13882880820893E-05,1.20014174171956E-05,6.6796875,0,0
-4.22508783231024E-05,1.29082836792804E-05,6.6796875,0,0
-4.13950328947976E-05,1.26719387480989E-05,6.6796875,0,0
-4.07608167733997E-05,1.19647811516188E-05,6.6796875,0,0
-3.97665353375487E-05,1.01487503343378E-05,6.6796875,0,0
-3.93430273106787E-05,9.96822836896172E-06,13.7109375,0,0
-3.73774746549316E-05,9.14782594918506E-06,13.7109375,0,0
-3.65432897524443E-05,9.20084312383551E-06,13.7109375,0,0
-3.52788374584634E-05,7.88882880442543E-06,13.7109375,0,0
-3.41857557941694E-05,8.21875437395647E-06,13.7109375,0,0
-3.11097501253244E-05,8.3112608990632E-06,13.7109375,0,0
-2.84151137748268E-05,1.01495024864562E-05,13.7109375,0,0
-2.62890134763438E-05,1.18249618026312E-05,13.7109375,0,0
-2.45644059759798E-05,1.28243400467909E-05,13.7109375,0,0
-2.22466442210134E-05,1.06454544948065E-05,13.7109375,0,0
-2.09488025575411E-05,9.18147361517185E-06,13.7109375,0,0
-2.10419239010662E-05,9.05829620023724E-06,13.7109375,0,0
-2.13636212720303E-05,9.93987305264454E-06,13.7109375,0,0
-1.68686055985745E-05,9.66790776146809E-06,13.7109375,0,0
-2.42732239712495E-05,1.33420926431427E-05,13.7109375,0,0
-1.90354166988982E-05,9.01757175597595E-06,13.7109375,0,0
-2.46160780079663E-05,1.10164392026491E-05,13.7109375,0,0
-2.23528768401593E-05,8.99398401088547E-06,13.7109375,0,0
-2.4156697691069E-05,1.1278979400231E-05,13.7109375,0,0
-2.1429123080452E-05,1.18794414447621E-05,13.7109375,0,0
-2.26234315050533E-05,1.206541674037E-05,13.7109375,0,0
-2.17808901652461E-05,8.87943042471306E-06,13.7109375,0,0
-2.1579566237051E-05,5.74610157855204E-06,13.7109375,0,0
-2.19572320929728E-05,5.53536119696219E-06,13.7109375,0,0
-2.14175706787501E-05,6.9143879954936E-06,13.7109375,0,0
-2.2502903448185E-05,9.24439791560872E-06,13.7109375,0,0
-2.30684927373659E-05,9.6196936283377E-06,13.7109375,0,0
-2.60348315350711E-05,1.12486522994004E-05,13.7109375,0,0
-2.71892713499255E-05,1.28409037642996E-05,13.7109375,0,0
-3.00064602924977E-05,1.47021064549335E-05,13.7109375,0,0
-3.10094801534433E-05,1.38920904646511E-05,13.7109375,0,0
-3.35978584189434E-05,1.30292883113725E-05,13.7109375,0,0
-3.54331168637145E-05,1.17359022624441E-05,13.7109375,0,0
-3.92115434806328E-05,1.08310805444489E-05,13.7109375,0,0
-4.06644321628846E-05,8.75431214808486E-06,13.7109375,0,0
-4.11519031331409E-05,6.99822294336627E-06,13.7109375,0,0
-3.95364622818306E-05,5.79238303544116E-06,13.7109375,0,0
-3.79533994419035E-05,7.10503627487924E-06,13.7109375,0,0
-3.69864537788089E-05,9.05490651348373E-06,13.7109375,0,0
-3.65472187695559E-05,9.49918285186868E-06,13.7109375,0,0
-2.73426448984537E-05,5.72754015593091E-06,13.7109375,0,0
-3.6816498322878E-05,7.4635177043092E-06,13.7109375,0,0
-2.45423343585571E-05,7.14246334609925E-06,13.7109375,0,0
-2.85938967863331E-05,1.13678597699618E-05,13.7109375,0,0
-1.93346404557815E-05,1.05822437035386E-05,13.7109375,0,0
-2.22843809751794E-05,1.1228416042286E-05,13.7109375,0,0
-1.83935135282809E-05,1.02358044387074E-05,13.7109375,0,0
-1.8192393326899E-05,1.10812252387404E-05,13.7109375,0,0
-1.45499298014329E-05,1.20753729788703E-05,13.7109375,0,0
-1.27027333292062E-05,1.31763436002075E-05,13.7109375,0,0
-1.34653182612965E-05,1.23416557471501E-05,13.7109375,0,0
-1.39206995299901E-05,1.0467565516592E-05,13.7109375,0,0
-1.57396716531366E-05,1.01881123555358E-05,13.7109375,0,0
-1.55324069055496E-05,1.0867603123188E-05,13.7109375,0,0
-1.902903750306E-05,1.20918821266969E-05,13.7109375,0,0
-1.89306811080314E-05,1.10059372673277E-05,13.7109375,0,0
-2.18165369005874E-05,9.71450390352402E-06,13.7109375,0,0
-2.18014411075274E-05,8.59268038766459E-06,13.7109375,0,0
-2.4174330974347E-05,9.66679090197431E-06,13.7109375,0,0
-2.44858929363545E-05,1.00092811408103E-05,13.7109375,0,0
-2.81235879810993E-05,9.52276150201214E-06,13.7109375,0,0
-2.97076931019546E-05,8.07127526059048E-06,13.7109375,0,0
-3.14415046887007E-05,8.10208166512894E-06,13.7109375,0,0
-3.05511894111987E-05,9.74932117969729E-06,13.7109375,0,0
-3.0643252102891E-05,1.34925985548762E-05,13.7109375,0,0
-3.04759360005846E-05,1.57453250722028E-05,13.7109375,0,0
-2.98008035315434E-05,1.43045690492727E-05,13.7109375,0,0
-2.27609052672051E-05,9.66742936725495E-06,13.7109375,0,0
-3.15045544994064E-05,1.36073649628088E-05,13.7109375,0,0
-2.36342366406461E-05,1.16733499453403E-05,13.7109375,0,0
-2.9562890631496E-05,1.47158389154356E-05,13.7109375,0,0
-2.41269062826177E-05,1.12672287286841E-05,13.7109375,0,0
-2.74382273346419E-05,1.23246454677428E-05,13.7109375,0,0
-2.49863787757931E-05,1.13579244498396E-05,13.7109375,0,0
-2.59422522503883E-05,1.13769392555696E-05,13.7109375,0,0
-2.40093304455513E-05,8.65302536112722E-06,13.7109375,0,0
-2.19808716792613E-05,7.08083734934917E-06,13.7109375,0,0
-2.06291824724758E-05,8.07871765573509E-06,13.7109375,0,0
-1.87966506928205E-05,8.87899113877211E-06,13.7109375,0,0
-1.88620961125707E-05,8.25679671834223E-06,13.7109375,0,0
-1.69302547874395E-05,5.70437441638205E-06,13.7109375,0,0
-1.7471307728556E-05,6.43026487523457E-06,13.7109375,0,0
-1.58513576025143E-05,7.85784686740953E-06,13.7109375,0,0
-1.7140329873655E-05,9.84133566817036E-06,13.7109375,0,0
-1.66287409228971E-05,9.56904932536418E-06,13.7109375,0,0
-1.89186303032329E-05,9.77365652943263E-06,13.7109375,0,0
-1.95563861780101E-05,8.72632699611131E-06,13.7109375,0,0
-2.21674436033936E-05,9.04080661712214E-06,13.7109375,0,0
-2.22249327634927E-05,8.71785232448019E-06,13.7109375,0,0
-2.25008061534027E-05,8.63600871525705E-06,13.7109375,0,0
-2.22347371163778E-05,8.23648588266224E-06,13.7109375,0,0
-2.37993135669967E-05,8.9407531049801E-06,13.7109375,0,0
-2.52600075327791E-05,1.1304840882076E-05,13.7109375,0,0
-2.68505900749005E-05,1.31221831907169E-05,13.7109375,0,0
-2.30280184041476E-05,1.06300067272969E-05,13.7109375,0,0
-3.30786715494469E-05,1.46885131471208E-05,13.7109375,0,0
-2.47591051447671E-05,1.06899306047126E-05,13.7109375,0,0
-2.99590574286412E-05,1.37242841447005E-05,13.7109375,0,0
-2.68740495812381E-05,1.1945830010518E-05,13.7109375,0,0
-3.20151084451936E-05,1.37952438308275E-05,13.7109375,0,0
-2.97559054160956E-05,1.3186945579946E-05,13.7109375,0,0
-2.96952421194874E-05,1.49223151311162E-05,13.7109375,0,0
-2.74351878033485E-05,1.55648740474135E-05,13.7109375,0,0
-2.61826371570351E-05,1.50602945723222E-05,13.7109375,0,0
-2.52472837019013E-05,1.47223508975003E-05,13.7109375,0,0
-2.30869736697059E-05,1.47363352880348E-05,13.7109375,0,0
-2.15076888707699E-05,1.55223242472857E-05,13.7109375,0,0
-1.62572196131805E-05,1.44315181387356E-05,13.7109375,0,0
-1.24326061268221E-05,1.30519656522665E-05,13.7109375,0,0
-7.01376939105103E-06,1.00749357443419E-05,13.7109375,0,0
-6.70557528792415E-06,1.03002248579287E-05,13.7109375,0,0
-5.33333650309942E-06,1.20068807518692E-05,13.7109375,0,0
-5.64556194149191E-06,1.45286339829909E-05,13.7109375,0,0
-4.8027659431682E-06,1.39405465233722E-05,13.7109375,0,0
-7.80194113758625E-06,1.24871194202569E-05,13.7109375,0,0
-9.80744425760349E-06,1.06956495073973E-05,13.7109375,0,0
-1.27451612570439E-05,1.15602388177649E-05,13.7109375,0,0
-1.44385303428862E-05,1.17039553515497E-05,13.7109375,0,0
-1.65004366863286E-05,1.006234651868E-05,13.7109375,0,0
-1.82984313141787E-05,9.09878144739196E-06,13.7109375,0,0
-2.03326144401217E-05,1.02040849014884E-05,13.7109375,0,0
-1.853794856288E-05,9.6762241810211E-06,13.7109375,0,0
-2.70842938334681E-05,1.39920148285455E-05,13.7109375,0,0
-2.11002206924604E-05,1.06114021036774E-05,13.7109375,0,0
-2.55333397944923E-05,1.24596899695462E-05,13.7109375,0,0
-2.21207883441821E-05,1.07579344330588E-05,13.7109375,0,0
-2.5070668925764E-05,1.32838422359782E-05,13.7109375,0,0
-2.32006204896607E-05,1.35256659632432E-05,13.7109375,0,0
-2.3269862140296E-05,1.49159504871932E-05,13.7109375,0,0
-2.19592402572744E-05,1.36306762215099E-05,13.7109375,0,0
-2.20956917473814E-05,1.12338912003906E-05,13.7109375,0,0
-2.3873724785517E-05,9.32413149712374E-06,13.7109375,0,0
-2.42803489527432E-05,7.83452469477197E-06,13.7109375,0,0
-2.36093346757116E-05,8.74831857800018E-06,13.7109375,0,0
-2.00720223801909E-05,9.74401154962834E-06,13.7109375,0,0
-1.97979097720236E-05,1.15245156848687E-05,13.7109375,0,0
-1.94681488210335E-05,1.18096213554963E-05,13.7109375,0,0
-2.01758030016208E-05,1.32297336676857E-05,13.7109375,0,0
-1.76036137418123E-05,1.29600975924404E-05,13.7109375,0,0
-1.71241990756243E-05,1.26680160974502E-05,13.7109375,0,0
-1.63828481163364E-05,1.15233578981133E-05,13.7109375,0,0
-1.82423755177297E-05,1.25834631035104E-05,13.7109375,0,0
-1.96477285498986E-05,1.2863262782048E-05,13.7109375,0,0
-2.18814038817072E-05,1.27775274449959E-05,13.7109375,0,0
-2.27622986130882E-05,1.44590749187046E-05,13.7109375,0,0
-2.38111715589184E-05,1.57306021719705E-05,13.7109375,0,0
-2.51655965257669E-05,1.46857491927221E-05,13.7109375,0,0
-2.58987947745482E-05,1.36239186758758E-05,13.7109375,0,0
-1.91952949535334E-05,1.10269802462426E-05,13.7109375,0,0
-2.53156104008667E-05,1.54120789375156E-05,13.7109375,0,0
-1.80561619345099E-05,1.15650718726101E-05,13.7109375,0,0
-2.57741739915218E-05,1.40839392770431E-05,13.7109375,0,0
-2.40503195527708E-05,1.06057159428019E-05,13.7109375,0,0
-2.81377833744045E-05,1.35338950713049E-05,13.7109375,0,0
-2.61936020251596E-05,1.52891734614968E-05,13.7109375,0,0
-2.81994780380046E-05,1.59785649884725E-05,13.7109375,0,0
-2.95430199912516E-05,1.28096544358414E-05,13.7109375,0,0
-3.13577111228369E-05,1.03348456832464E-05,13.7109375,0,0
-3.16988734994084E-05,1.09571838038391E-05,13.7109375,0,0
-2.99274634016911E-05,1.2185842024337E-05,13.7109375,0,0
-2.97807237075176E-05,1.42910603244673E-05,13.7109375,0,0
-2.85101577901514E-05,1.47171758726472E-05,13.7109375,0,0
-2.98579197988147E-05,1.44182586154784E-05,13.7109375,0,0
-2.86465619865339E-05,1.15662505777436E-05,13.7109375,0,0
-2.87505572487134E-05,1.07721825770568E-05,13.7109375,0,0
-2.76221162494039E-05,1.10926330307848E-05,13.7109375,0,0
-2.97724218398798E-05,1.34434085339308E-05,13.7109375,0,0
-2.93631746899337E-05,1.23908048408339E-05,13.7109375,0,0
-2.97156420856481E-05,8.20670447865268E-06,13.7109375,0,0
-2.90065981971566E-05,2.67959012489882E-06,13.7109375,0,0
-2.98761679005111E-05,1.62036951678601E-06,13.7109375,0,0
-2.95970912702614E-05,3.44826003129128E-06,13.7109375,0,0
-2.96777998300968E-05,4.61083845948451E-06,13.7109375,0,0
-2.88009996438632E-05,3.78839831682853E-06,13.7109375,0,0
-2.79848136415239E-05,2.5527397156111E-06,13.7109375,0,0
-2.21913651330397E-05,2.06579306905041E-06,13.7109375,0,0
-3.12810843752231E-05,3.93175605495344E-06,13.7109375,0,0
-2.30247715080623E-05,4.39397126683616E-06,13.7109375,0,0
-2.81971770164091E-05,5.3606695473718E-06,13.7109375,0,0
-2.27617310883943E-05,6.13257680015522E-06,13.7109375,0,0
-2.60428805631818E-05,6.35892911304836E-06,13.7109375,0,0
-2.72320157819195E-05,5.79064908379223E-06,13.7109375,0,0
-3.40982114721555E-05,6.46669968773494E-06,13.7109375,0,0
-3.88293447031174E-05,7.77441073296359E-06,13.7109375,0,0
-4.22700104536489E-05,8.99597671377705E-06,13.7109375,0,0
-4.35542497143615E-05,8.01561873231549E-06,13.7109375,0,0
-4.21140430262312E-05,5.76077036384959E-06,13.7109375,0,0
-4.09414096793626E-05,4.96953407491674E-06,13.7109375,0,0
-3.80224701075349E-05,6.42959003016585E-06,13.7109375,0,0
-3.708385702339E-05,9.09633581613889E-06,13.7109375,0,0
-3.26856352330651E-05,1.06348907138454E-05,13.7109375,0,0
-3.04044697259087E-05,1.18971765914466E-05,13.7109375,0,0
-2.72631841653492E-05,1.34188148877001E-05,13.7109375,0,0
-2.6714054911281E-05,1.48923782035126E-05,13.7109375,0,0
-2.25419644266367E-05,1.57630256580887E-05,13.7109375,0,0
-2.0260766177671E-05,1.65324854606297E-05,13.7109375,0,0
-1.7521593690617E-05,1.62054584507132E-05,13.7109375,0,0
-1.64168159244582E-05,1.54944336827612E-05,13.7109375,0,0
-1.50645673784311E-05,1.46396305353846E-05,13.7109375,0,0
-1.44614841701696E-05,1.4071466466703E-05,13.7109375,0,0
-1.44949826790253E-05,1.38067980515189E-05,13.7109375,0,0
-1.71730844158446E-05,1.16459877972375E-05,13.7109375,0,0
-1.89565507753287E-05,7.06742230249802E-06,13.7109375,0,0
-2.87028324237326E-05,8.89152579475194E-06,13.7109375,0,0
-2.23274491872871E-05,4.4210528358235E-06,13.7109375,0,0
-2.4673876396264E-05,4.9744130592444E-06,13.7109375,0,0
-1.98660000023665E-05,3.39311395691766E-06,13.7109375,0,0
-2.07012253667926E-05,5.62310833629454E-06,13.7109375,0,0
-1.72090294654481E-05,5.93164804740809E-06,13.7109375,0,0
-1.71788306033704E-05,8.0625613918528E-06,13.7109375,0,0
-1.72828331415076E-05,1.15658313006861E-05,13.7109375,0,0
-1.84829023055499E-05,1.60965500981547E-05,13.7109375,0,0
-1.96225082618184E-05,1.80056485987734E-05,13.7109375,0,0
-1.94077929336345E-05,1.62398955581011E-05,13.7109375,0,0
-2.01885250135092E-05,1.47997807289357E-05,13.7109375,0,0
-1.95235261344351E-05,1.43609822771396E-05,13.7109375,0,0
-1.99240148504032E-05,1.50003515955177E-05,13.7109375,0,0
-1.78812388185179E-05,1.29568006741465E-05,13.7109375,0,0
-1.84821928996826E-05,1.00186107374611E-05,13.7109375,0,0
-1.77398524101591E-05,7.87389944889583E-06,13.7109375,0,0
-1.7370641216985E-05,8.92472598934546E-06,13.7109375,0,0
-1.41598466143478E-05,9.76084720605286E-06,13.7109375,0,0
-1.24080688692629E-05,1.00428242149064E-05,13.7109375,0,0
-9.4315819296753E-06,8.41594192024786E-06,13.7109375,0,0
-7.66390257922467E-06,7.57999669076526E-06,13.7109375,0,0
-6.45242926111678E-06,7.24389246897772E-06,13.7109375,0,0
-7.72339444665704E-06,7.78225512476638E-06,13.7109375,0,0
-1.08046169771114E-05,1.03755155578256E-05,13.7109375,0,0
-1.46829588629771E-05,1.36993739943136E-05,13.7109375,0,0
-1.43139386636904E-05,1.32029854285065E-05,13.7109375,0,0
-2.05625838134438E-05,2.02197152248118E-05,13.7109375,0,0
-1.61411917360965E-05,1.67844154930208E-05,13.7109375,0,0
-2.05404539883602E-05,2.01431284949649E-05,13.7109375,0,0
-1.88254889508244E-05,1.6152196621988E-05,13.7109375,0,0
-2.14354186027776E-05,1.70464063558029E-05,13.7109375,0,0
-1.99754722416401E-05,1.74082560988609E-05,13.7109375,0,0
-2.08788605959853E-05,1.81263167178258E-05,13.7109375,0,0
-2.08460842259228E-05,1.75045715877786E-05,13.7109375,0,0
-2.01017210201826E-05,1.7699920135783E-05,13.7109375,0,0
-1.81157411134336E-05,1.64554476214107E-05,13.7109375,0,0
-1.63459826580947E-05,1.41797045216663E-05,13.7109375,0,0
-1.82273051905213E-05,1.48334547702689E-05,13.7109375,0,0
-2.10349298868096E-05,1.43916140586953E-05,13.7109375,0,0
-2.4903949451982E-05,1.32192226374173E-05,13.7109375,0,0
-2.51595283771167E-05,1.03709016912035E-05,13.7109375,0,0
-2.57997817243449E-05,9.77932450041408E-06,13.7109375,0,0
-2.54874976235442E-05,9.5587492978666E-06,13.7109375,0,0
-2.72310771833872E-05,1.17368545033969E-05,13.7109375,0,0
-2.7461306672194E-05,1.24534381029662E-05,23.203125,0,0
-2.86217091343133E-05,1.30065145640401E-05,23.203125,0,0
-2.99284438369796E-05,1.22862575153704E-05,23.203125,0,0
-3.29748618241865E-05,1.1483911293908E-05,23.203125,0,0
-3.36772827722598E-05,1.06534153019311E-05,23.203125,0,0
-3.24036736856215E-05,1.16431883725454E-05,23.203125,0,0
-3.00198698823806E-05,1.34140673253569E-05,23.203125,0,0
-2.67566501861438E-05,1.37198339871247E-05,23.203125,0,0
-2.04219704755815E-05,1.11751660369919E-05,23.203125,0,0
-3.179002305842E-05,1.63824788614875E-05,23.203125,0,0
-3.11913936457131E-05,1.24900425362284E-05,23.203125,0,0
-4.16317816416267E-05,1.38603145387606E-05,23.203125,0,0
-4.00313001591712E-05,1.00546831163228E-05,23.203125,0,0
-4.46371595899109E-05,1.00344532256713E-05,23.203125,0,0
-4.20961841882672E-05,7.32577746020979E-06,23.203125,0,0
-4.14828027714975E-05,7.08862626197515E-06,23.203125,0,0
-4.04868660552893E-05,7.03436671756208E-06,23.203125,0,0
-4.11888249800541E-05,6.8171793827787E-06,23.203125,0,0
-4.18915624322835E-05,5.51523680769606E-06,23.203125,0,0
-3.96164614357986E-05,4.88677414978156E-06,23.203125,0,0
-3.73380025848746E-05,6.89135731590795E-06,23.203125,0,0
-3.45354237651918E-05,6.92807498126058E-06,23.203125,0,0
-3.50178779626731E-05,6.60594105283963E-06,23.203125,0,0
-3.25778746628203E-05,6.48249306323123E-06,23.203125,0,0
-3.09952265524771E-05,8.64648154674796E-06,23.203125,0,0
-2.74478679784806E-05,7.75032731326064E-06,23.203125,0,0
-2.68998410319909E-05,6.58653289065114E-06,23.203125,0,0
-2.5331635697512E-05,4.97840983371134E-06,23.203125,0,0
-2.64391073869774E-05,4.36093660027836E-06,23.203125,0,0
-2.76781174761709E-05,4.33432205682038E-06,23.203125,0,0
-2.92352597170975E-05,6.38453775536618E-06,23.203125,0,0
-2.68255225819303E-05,6.72311671223724E-06,23.203125,0,0
-2.31949998124037E-05,6.82560175846447E-06,23.203125,0,0
-2.04935186047805E-05,8.05058152764104E-06,23.203125,0,0
-1.96748878806829E-05,8.49071420816472E-06,23.203125,0,0
-1.54057233885396E-05,7.51107018004404E-06,23.203125,0,0
-2.18466793739935E-05,1.31191236505401E-05,23.203125,0,0
-1.61796760949073E-05,1.44179339258699E-05,23.203125,0,0
-1.82713429239811E-05,1.62757442012662E-05,23.203125,0,0
-1.32751929413644E-05,1.20967724797083E-05,23.203125,0,0
-1.50691830640426E-05,1.16223136501503E-05,23.203125,0,0
-1.36012386064976E-05,1.1284383617749E-05,23.203125,0,0
-1.38025443447987E-05,1.32232771647978E-05,23.203125,0,0
-1.27202210933319E-05,1.39132662297925E-05,23.203125,0,0
-1.33864032250131E-05,1.1715527762135E-05,23.203125,0,0
-1.47168602779857E-05,9.75923921942012E-06,23.203125,0,0
-1.51869744513533E-05,9.44072417041752E-06,23.203125,0,0
-1.60245217557531E-05,9.6023013611557E-06,23.203125,0,0
-1.56686091941083E-05,8.29934742796468E-06,23.203125,0,0
-1.68626120284898E-05,8.01274472905789E-06,23.203125,0,0
-1.6209460227401E-05,7.1135586949822E-06,23.203125,0,0
-1.8015405657934E-05,7.09757159711444E-06,23.203125,0,0
-1.94537788047455E-05,7.55984001443721E-06,23.203125,0,0
-2.311392017873E-05,8.14427585282829E-06,23.203125,0,0
-2.47953830694314E-05,6.24867925580475E-06,23.203125,0,0
-2.65686448983615E-05,4.35671245213598E-06,23.203125,0,0
-2.593224417069E-05,3.05212915918673E-06,23.203125,0,0
-2.50926368607907E-05,2.89444847112463E-06,23.203125,0,0
-2.36994110309752E-05,2.65808694166481E-06,23.203125,0,0
-2.44134043896338E-05,3.95468759961659E-06,23.203125,0,0
-2.59181542787701E-05,6.62223283143248E-06,23.203125,0,0
-2.69577776634833E-05,7.52234200263047E-06,23.203125,0,0
-2.27317595999921E-05,5.86714759265305E-06,23.203125,0,0
-3.28466376231518E-05,9.75567400018917E-06,23.203125,0,0
-2.47590069193393E-05,1.12366387838847E-05,23.203125,0,0
-2.9708506190218E-05,1.58679795276839E-05,23.203125,0,0
-2.54547794611426E-05,1.50646628753748E-05,23.203125,0,0
-2.92718996206531E-05,1.48027911563986E-05,23.203125,0,0
-2.77834642474772E-05,1.4282918527897E-05,23.203125,0,0
-2.97078986477572E-05,1.54424888023641E-05,23.203125,0,0
-2.85989590338431E-05,1.58950424520299E-05,23.203125,0,0
-2.76367263722932E-05,1.53400433191564E-05,23.203125,0,0
-2.56953044299735E-05,1.45662015711423E-05,23.203125,0,0
-2.28985900321277E-05,1.35000755108194E-05,23.203125,0,0
-2.41795005422318E-05,1.23764275485883E-05,23.203125,0,0
-2.51689125434496E-05,1.05456192613929E-05,23.203125,0,0
-2.7819149181596E-05,9.53041126194876E-06,23.203125,0,0
-2.75797028734814E-05,7.89688419899903E-06,23.203125,0,0
-3.10144532704726E-05,7.05230741004925E-06,23.203125,0,0
-3.27717789332382E-05,6.51944765195367E-06,23.203125,0,0
-3.55312658939511E-05,7.02009037922835E-06,23.203125,0,0
-3.41956038028002E-05,6.91622608428588E-06,23.203125,0,0
-3.3084703318309E-05,6.65442348690704E-06,23.203125,0,0
-3.01066738757072E-05,5.29680164618185E-06,23.203125,0,0
-2.82828495983267E-05,4.71016346637043E-06,23.203125,0,0
-2.49326294579078E-05,5.51998755327077E-06,23.203125,0,0
-2.23842671402963E-05,6.45369391349959E-06,23.203125,0,0
-1.9962706574006E-05,5.94963694311446E-06,23.203125,0,0
-1.72533382283291E-05,4.91015316583798E-06,23.203125,0,0
-1.06494626379572E-05,4.22701759816846E-06,23.203125,0,0
-1.20407394206268E-05,6.91301693223068E-06,23.203125,0,0
-4.99018187838374E-06,7.68624886404723E-06,23.203125,0,0
-6.79179993312573E-06,9.98143514152616E-06,23.203125,0,0
-2.50926655098738E-06,9.98788982542465E-06,23.203125,0,0
-2.03820741262462E-06,1.36996768560493E-05,23.203125,0,0
7.19039832119961E-08,1.75337972905254E-05,23.203125,0,0
-1.20231584332942E-06,2.03953368327348E-05,23.203125,0,0
-3.35720437760756E-06,2.02847495529568E-05,23.203125,0,0
-6.64368826619466E-06,1.98342131625395E-05,23.203125,0,0
-9.81980701908469E-06,1.95371376321418E-05,23.203125,0,0
-1.08636395452777E-05,1.83705651579658E-05,23.203125,0,0
